[2025-04-13 13:55:39.491172] 441
[2025-04-13 13:55:39.491172] 64
[2025-04-13 13:55:39.491172] 4
[2025-04-13 13:55:39.491172] 100
[2025-04-13 13:55:39.491172] 196
[2025-04-13 13:55:39.491172] 225
[2025-04-13 13:55:39.491172] 144
[2025-04-13 13:55:39.491172] 64
[2025-04-13 13:55:39.500028] 4
[2025-04-13 13:55:39.500028] 16
[2025-04-13 13:55:39.500028] 121
[2025-04-13 13:55:39.500028] 324
[2025-04-13 13:55:39.500028] 576
[2025-04-13 13:55:39.501027] 784
[2025-04-13 13:55:39.501027] 841
[2025-04-13 13:55:39.508080] 625
[2025-04-13 13:55:39.508080] 324
[2025-04-13 13:55:39.508080] 64
[2025-04-13 13:55:39.508080] 9
[2025-04-13 13:55:39.508080] 196
[2025-04-13 13:55:39.508080] 529
[2025-04-13 13:55:39.508080] 841
[2025-04-13 13:55:39.516222] 1024
[2025-04-13 13:55:39.516222] 961
[2025-04-13 13:55:39.516222] 841
[2025-04-13 13:55:39.516222] 625
[2025-04-13 13:55:39.517204] 361
[2025-04-13 13:55:39.517204] 121
[2025-04-13 13:55:39.524203] 0
[2025-04-13 13:55:39.524203] 100
[2025-04-13 13:55:39.524203] 400
[2025-04-13 13:55:39.524203] 625
[2025-04-13 13:55:39.524203] 676
[2025-04-13 13:55:39.524203] 529
[2025-04-13 13:55:39.524203] 289
[2025-04-13 13:55:39.532362] 100
[2025-04-13 13:55:39.532362] 1
[2025-04-13 13:55:39.532362] 36
[2025-04-13 13:55:39.532362] 169
[2025-04-13 13:55:39.532362] 361
[2025-04-13 13:55:39.532362] 529
[2025-04-13 13:55:39.532362] 625
[2025-04-13 13:55:39.541383] 625
[2025-04-13 13:55:39.541383] 441
[2025-04-13 13:55:39.541383] 256
[2025-04-13 13:55:39.541383] 64
[2025-04-13 13:55:39.541383] 0
[2025-04-13 13:55:39.541383] 49
[2025-04-13 13:55:39.541383] 144
[2025-04-13 13:55:39.550271] 225
[2025-04-13 13:55:39.550271] 225
[2025-04-13 13:55:39.550271] 169
[2025-04-13 13:55:39.550271] 81
[2025-04-13 13:55:39.550271] 25
[2025-04-13 13:55:39.550271] 1
[2025-04-13 13:55:39.550776] 4
[2025-04-13 13:55:39.550776] 36
[2025-04-13 13:55:39.558927] 81
[2025-04-13 13:55:39.558927] 100
[2025-04-13 13:55:39.559782] 121
[2025-04-13 13:55:39.559782] 144
[2025-04-13 13:55:39.559782] 81
[2025-04-13 13:55:39.559782] 36
[2025-04-13 13:55:39.559782] 4
[2025-04-13 13:55:39.571302] 0
[2025-04-13 13:55:39.571302] 4
[2025-04-13 13:55:39.571302] 4
[2025-04-13 13:55:39.571302] 4
[2025-04-13 13:55:39.571302] 0
[2025-04-13 13:55:39.572194] 0
[2025-04-13 13:55:39.572194] 0
[2025-04-13 13:55:39.572194] 1
[2025-04-13 13:55:39.572194] 1
[2025-04-13 13:55:39.572194] 4
[2025-04-13 13:55:39.572194] 4
[2025-04-13 13:55:39.583160] 4
[2025-04-13 13:55:39.583160] 4
[2025-04-13 13:55:39.583160] 4
[2025-04-13 13:55:39.583160] 4
[2025-04-13 13:55:39.583160] 1
[2025-04-13 13:55:39.583160] 0
[2025-04-13 13:55:39.583160] 4
[2025-04-13 13:55:39.583160] 9
[2025-04-13 13:55:39.583160] 9
[2025-04-13 13:55:39.583160] 0
[2025-04-13 13:55:39.592511] 16
[2025-04-13 13:55:39.592511] 36
[2025-04-13 13:55:39.592511] 81
[2025-04-13 13:55:39.592511] 100
[2025-04-13 13:55:39.593439] 81
[2025-04-13 13:55:39.593439] 64
[2025-04-13 13:55:39.593439] 36
[2025-04-13 13:55:39.593439] 9
[2025-04-13 13:55:39.593439] 0
[2025-04-13 13:55:39.602560] 1
[2025-04-13 13:55:39.602560] 9
[2025-04-13 13:55:39.602560] 25
[2025-04-13 13:55:39.602560] 36
[2025-04-13 13:55:39.602560] 64
[2025-04-13 13:55:39.602560] 81
[2025-04-13 13:55:39.602560] 64
[2025-04-13 13:55:39.603610] 16
[2025-04-13 13:55:39.610569] 0
[2025-04-13 13:55:39.610569] 36
[2025-04-13 13:55:39.611545] 100
[2025-04-13 13:55:39.611545] 196
[2025-04-13 13:55:39.611545] 225
[2025-04-13 13:55:39.611545] 225
[2025-04-13 13:55:39.611545] 169
[2025-04-13 13:55:39.619907] 100
[2025-04-13 13:55:39.619907] 36
[2025-04-13 13:55:39.619907] 9
[2025-04-13 13:55:39.619907] 0
[2025-04-13 13:55:39.619907] 25
[2025-04-13 13:55:39.619907] 100
[2025-04-13 13:55:39.619907] 225
[2025-04-13 13:55:39.619907] 256
[2025-04-13 13:55:39.627914] 256
[2025-04-13 13:55:39.627914] 144
[2025-04-13 13:55:39.627914] 16
[2025-04-13 13:55:39.627914] 4
[2025-04-13 13:55:39.627914] 100
[2025-04-13 13:55:39.627914] 225
[2025-04-13 13:55:39.627914] 324
[2025-04-13 13:55:39.637486] 324
[2025-04-13 13:55:39.637486] 289
[2025-04-13 13:55:39.637486] 196
[2025-04-13 13:55:39.637486] 144
[2025-04-13 13:55:39.637486] 64
[2025-04-13 13:55:39.637486] 4
[2025-04-13 13:55:39.637486] 16
[2025-04-13 13:55:39.645628] 100
[2025-04-13 13:55:39.645628] 196
[2025-04-13 13:55:39.645628] 256
[2025-04-13 13:55:39.645628] 225
[2025-04-13 13:55:39.645628] 121
[2025-04-13 13:55:39.645628] 25
[2025-04-13 13:55:39.645628] 0
[2025-04-13 13:55:39.652988] 25
[2025-04-13 13:55:39.652988] 100
[2025-04-13 13:55:39.652988] 169
[2025-04-13 13:55:39.653886] 225
[2025-04-13 13:55:39.653886] 225
[2025-04-13 13:55:39.653886] 196
[2025-04-13 13:55:39.661854] 144
[2025-04-13 13:55:39.661854] 81
[2025-04-13 13:55:39.662846] 9
[2025-04-13 13:55:39.662846] 4
[2025-04-13 13:55:39.662846] 49
[2025-04-13 13:55:39.662846] 121
[2025-04-13 13:55:39.662846] 169
[2025-04-13 13:55:39.662846] 144
[2025-04-13 13:55:39.671221] 64
[2025-04-13 13:55:39.672230] 9
[2025-04-13 13:55:39.672230] 1
[2025-04-13 13:55:39.672230] 16
[2025-04-13 13:55:39.672230] 64
[2025-04-13 13:55:39.672230] 121
[2025-04-13 13:55:39.672230] 196
[2025-04-13 13:55:39.672230] 225
[2025-04-13 13:55:39.680370] 144
[2025-04-13 13:55:39.680370] 81
[2025-04-13 13:55:39.680370] 25
[2025-04-13 13:55:39.680370] 0
[2025-04-13 13:55:39.680370] 16
[2025-04-13 13:55:39.680370] 81
[2025-04-13 13:55:39.680370] 121
[2025-04-13 13:55:39.689286] 121
[2025-04-13 13:55:39.689286] 100
[2025-04-13 13:55:39.690307] 36
[2025-04-13 13:55:39.690307] 0
[2025-04-13 13:55:39.690307] 25
[2025-04-13 13:55:39.690307] 81
[2025-04-13 13:55:39.690307] 121
[2025-04-13 13:55:39.690307] 144
[2025-04-13 13:55:39.698105] 169
[2025-04-13 13:55:39.698105] 144
[2025-04-13 13:55:39.698105] 100
[2025-04-13 13:55:39.698960] 49
[2025-04-13 13:55:39.698960] 16
[2025-04-13 13:55:39.698960] 1
[2025-04-13 13:55:39.698960] 36
[2025-04-13 13:55:39.705963] 144
[2025-04-13 13:55:39.705963] 196
[2025-04-13 13:55:39.706992] 196
[2025-04-13 13:55:39.706992] 121
[2025-04-13 13:55:39.706992] 36
[2025-04-13 13:55:39.706992] 0
[2025-04-13 13:55:39.706992] 25
[2025-04-13 13:55:39.706992] 81
[2025-04-13 13:55:39.715100] 169
[2025-04-13 13:55:39.715100] 225
[2025-04-13 13:55:39.715100] 196
[2025-04-13 13:55:39.715100] 196
[2025-04-13 13:55:39.715100] 144
[2025-04-13 13:55:39.715100] 81
[2025-04-13 13:55:39.723433] 16
[2025-04-13 13:55:39.723433] 0
[2025-04-13 13:55:39.723433] 36
[2025-04-13 13:55:39.723433] 121
[2025-04-13 13:55:39.723433] 196
[2025-04-13 13:55:39.724322] 196
[2025-04-13 13:55:39.724322] 121
[2025-04-13 13:55:39.724322] 49
[2025-04-13 13:55:39.732433] 0
[2025-04-13 13:55:39.732433] 16
[2025-04-13 13:55:39.732433] 64
[2025-04-13 13:55:39.733289] 121
[2025-04-13 13:55:39.733289] 196
[2025-04-13 13:55:39.733289] 196
[2025-04-13 13:55:39.733289] 196
[2025-04-13 13:55:39.741083] 144
[2025-04-13 13:55:39.741083] 100
[2025-04-13 13:55:39.741083] 36
[2025-04-13 13:55:39.741083] 1
[2025-04-13 13:55:39.741083] 9
[2025-04-13 13:55:39.741083] 64
[2025-04-13 13:55:39.741083] 121
[2025-04-13 13:55:39.752072] 144
[2025-04-13 13:55:39.752072] 81
[2025-04-13 13:55:39.752072] 25
[2025-04-13 13:55:39.752072] 1
[2025-04-13 13:55:39.752072] 9
[2025-04-13 13:55:39.752072] 25
[2025-04-13 13:55:39.752072] 49
[2025-04-13 13:55:39.752072] 81
[2025-04-13 13:55:39.753090] 100
[2025-04-13 13:55:39.760991] 81
[2025-04-13 13:55:39.760991] 81
[2025-04-13 13:55:39.760991] 49
[2025-04-13 13:55:39.760991] 16
[2025-04-13 13:55:39.760991] 1
[2025-04-13 13:55:39.760991] 4
[2025-04-13 13:55:39.760991] 36
[2025-04-13 13:55:39.760991] 81
[2025-04-13 13:55:39.770485] 64
[2025-04-13 13:55:39.770485] 25
[2025-04-13 13:55:39.770485] 0
[2025-04-13 13:55:39.770485] 9
[2025-04-13 13:55:39.770485] 25
[2025-04-13 13:55:39.770485] 49
[2025-04-13 13:55:39.770485] 64
[2025-04-13 13:55:39.770485] 64
[2025-04-13 13:55:39.770485] 49
[2025-04-13 13:55:39.780575] 36
[2025-04-13 13:55:39.780575] 25
[2025-04-13 13:55:39.780575] 16
[2025-04-13 13:55:39.780575] 1
[2025-04-13 13:55:39.780575] 1
[2025-04-13 13:55:39.780575] 16
[2025-04-13 13:55:39.780575] 49
[2025-04-13 13:55:39.780575] 64
[2025-04-13 13:55:39.790085] 49
[2025-04-13 13:55:39.790085] 9
[2025-04-13 13:55:39.790085] 0
[2025-04-13 13:55:39.790085] 16
[2025-04-13 13:55:39.790085] 64
[2025-04-13 13:55:39.791084] 100
[2025-04-13 13:55:39.791084] 144
[2025-04-13 13:55:39.791084] 144
[2025-04-13 13:55:39.798328] 121
[2025-04-13 13:55:39.798328] 64
[2025-04-13 13:55:39.798328] 36
[2025-04-13 13:55:39.798328] 9
[2025-04-13 13:55:39.798328] 1
[2025-04-13 13:55:39.798328] 36
[2025-04-13 13:55:39.798328] 100
[2025-04-13 13:55:39.798328] 144
[2025-04-13 13:55:39.807306] 169
[2025-04-13 13:55:39.807306] 121
[2025-04-13 13:55:39.807306] 36
[2025-04-13 13:55:39.807306] 0
[2025-04-13 13:55:39.807306] 36
[2025-04-13 13:55:39.807306] 121
[2025-04-13 13:55:39.808295] 196
[2025-04-13 13:55:39.816227] 225
[2025-04-13 13:55:39.816227] 225
[2025-04-13 13:55:39.816227] 196
[2025-04-13 13:55:39.816227] 121
[2025-04-13 13:55:39.816227] 49
[2025-04-13 13:55:39.816227] 16
[2025-04-13 13:55:39.816227] 1
[2025-04-13 13:55:39.824608] 36
[2025-04-13 13:55:39.824608] 144
[2025-04-13 13:55:39.824608] 256
[2025-04-13 13:55:39.824608] 289
[2025-04-13 13:55:39.824608] 225
[2025-04-13 13:55:39.824608] 81
[2025-04-13 13:55:39.824608] 4
[2025-04-13 13:55:39.832608] 16
[2025-04-13 13:55:39.832608] 121
[2025-04-13 13:55:39.832608] 196
[2025-04-13 13:55:39.833497] 256
[2025-04-13 13:55:39.833497] 289
[2025-04-13 13:55:39.833497] 289
[2025-04-13 13:55:39.833497] 196
[2025-04-13 13:55:39.841530] 144
[2025-04-13 13:55:39.841530] 49
[2025-04-13 13:55:39.841530] 1
[2025-04-13 13:55:39.841530] 16
[2025-04-13 13:55:39.841530] 100
[2025-04-13 13:55:39.841530] 225
[2025-04-13 13:55:39.841530] 289
[2025-04-13 13:55:39.850116] 225
[2025-04-13 13:55:39.850116] 121
[2025-04-13 13:55:39.850116] 25
[2025-04-13 13:55:39.850116] 1
[2025-04-13 13:55:39.850116] 36
[2025-04-13 13:55:39.850116] 100
[2025-04-13 13:55:39.850116] 169
[2025-04-13 13:55:39.859258] 256
[2025-04-13 13:55:39.859258] 256
[2025-04-13 13:55:39.859258] 225
[2025-04-13 13:55:39.859258] 169
[2025-04-13 13:55:39.860116] 81
[2025-04-13 13:55:39.860116] 9
[2025-04-13 13:55:39.860116] 9
[2025-04-13 13:55:39.860116] 81
[2025-04-13 13:55:39.867855] 169
[2025-04-13 13:55:39.867855] 196
[2025-04-13 13:55:39.867855] 144
[2025-04-13 13:55:39.867855] 64
[2025-04-13 13:55:39.867855] 4
[2025-04-13 13:55:39.867855] 4
[2025-04-13 13:55:39.867855] 36
[2025-04-13 13:55:39.867855] 81
[2025-04-13 13:55:39.877163] 121
[2025-04-13 13:55:39.877163] 121
[2025-04-13 13:55:39.877163] 121
[2025-04-13 13:55:39.877163] 100
[2025-04-13 13:55:39.877163] 81
[2025-04-13 13:55:39.877163] 49
[2025-04-13 13:55:39.878155] 9
[2025-04-13 13:55:39.886172] 4
[2025-04-13 13:55:39.886172] 49
[2025-04-13 13:55:39.886172] 100
[2025-04-13 13:55:39.886172] 121
[2025-04-13 13:55:39.886172] 81
[2025-04-13 13:55:39.887153] 25
[2025-04-13 13:55:39.887153] 0
[2025-04-13 13:55:39.887153] 9
[2025-04-13 13:55:39.894864] 49
[2025-04-13 13:55:39.894864] 81
[2025-04-13 13:55:39.894864] 100
[2025-04-13 13:55:39.894864] 100
[2025-04-13 13:55:39.894864] 100
[2025-04-13 13:55:39.894864] 64
[2025-04-13 13:55:39.894864] 49
[2025-04-13 13:55:39.904817] 16
[2025-04-13 13:55:39.904817] 0
[2025-04-13 13:55:39.904817] 16
[2025-04-13 13:55:39.904817] 49
[2025-04-13 13:55:39.904817] 100
[2025-04-13 13:55:39.904817] 81
[2025-04-13 13:55:39.904817] 36
[2025-04-13 13:55:39.904817] 4
[2025-04-13 13:55:39.904817] 4
[2025-04-13 13:55:39.913616] 49
[2025-04-13 13:55:39.913616] 81
[2025-04-13 13:55:39.913616] 121
[2025-04-13 13:55:39.913616] 121
[2025-04-13 13:55:39.913616] 100
[2025-04-13 13:55:39.913616] 81
[2025-04-13 13:55:39.913616] 49
[2025-04-13 13:55:39.922543] 25
[2025-04-13 13:55:39.922543] 4
[2025-04-13 13:55:39.922543] 4
[2025-04-13 13:55:39.922543] 36
[2025-04-13 13:55:39.922543] 121
[2025-04-13 13:55:39.922543] 144
[2025-04-13 13:55:39.922543] 121
[2025-04-13 13:55:39.922543] 49
[2025-04-13 13:55:39.931306] 4
[2025-04-13 13:55:39.931553] 9
[2025-04-13 13:55:39.931553] 49
[2025-04-13 13:55:39.931553] 121
[2025-04-13 13:55:39.931553] 144
[2025-04-13 13:55:39.931553] 169
[2025-04-13 13:55:39.931553] 169
[2025-04-13 13:55:39.939749] 121
[2025-04-13 13:55:39.940759] 64
[2025-04-13 13:55:39.940759] 25
[2025-04-13 13:55:39.940759] 1
[2025-04-13 13:55:39.940759] 9
[2025-04-13 13:55:39.940759] 64
[2025-04-13 13:55:39.940759] 121
[2025-04-13 13:55:39.940759] 169
[2025-04-13 13:55:39.948755] 169
[2025-04-13 13:55:39.948755] 81
[2025-04-13 13:55:39.948755] 4
[2025-04-13 13:55:39.948755] 9
[2025-04-13 13:55:39.948755] 64
[2025-04-13 13:55:39.948755] 121
[2025-04-13 13:55:39.948755] 169
[2025-04-13 13:55:39.949755] 169
[2025-04-13 13:55:39.958563] 169
[2025-04-13 13:55:39.958563] 121
[2025-04-13 13:55:39.958563] 81
[2025-04-13 13:55:39.958563] 49
[2025-04-13 13:55:39.958563] 9
[2025-04-13 13:55:39.958563] 1
[2025-04-13 13:55:39.958563] 49
[2025-04-13 13:55:39.966469] 121
[2025-04-13 13:55:39.966469] 196
[2025-04-13 13:55:39.966469] 196
[2025-04-13 13:55:39.966469] 100
[2025-04-13 13:55:39.966469] 16
[2025-04-13 13:55:39.966469] 1
[2025-04-13 13:55:39.967447] 36
[2025-04-13 13:55:39.967447] 100
[2025-04-13 13:55:39.976423] 169
[2025-04-13 13:55:39.976423] 225
[2025-04-13 13:55:39.976423] 196
[2025-04-13 13:55:39.976423] 144
[2025-04-13 13:55:39.976423] 81
[2025-04-13 13:55:39.976423] 36
[2025-04-13 13:55:39.977424] 1
[2025-04-13 13:55:39.984251] 16
[2025-04-13 13:55:39.984251] 81
[2025-04-13 13:55:39.984251] 144
[2025-04-13 13:55:39.984251] 169
[2025-04-13 13:55:39.984251] 144
[2025-04-13 13:55:39.984251] 64
[2025-04-13 13:55:39.985225] 4
[2025-04-13 13:55:39.992197] 16
[2025-04-13 13:55:39.992197] 64
[2025-04-13 13:55:39.993191] 121
[2025-04-13 13:55:39.993191] 144
[2025-04-13 13:55:39.993191] 169
[2025-04-13 13:55:39.993191] 144
[2025-04-13 13:55:39.993191] 121
[2025-04-13 13:55:40.002228] 81
[2025-04-13 13:55:40.002228] 49
[2025-04-13 13:55:40.002228] 4
[2025-04-13 13:55:40.002228] 9
[2025-04-13 13:55:40.002228] 64
[2025-04-13 13:55:40.002228] 144
[2025-04-13 13:55:40.002228] 169
[2025-04-13 13:55:40.003227] 121
[2025-04-13 13:55:40.010462] 36
[2025-04-13 13:55:40.010462] 4
[2025-04-13 13:55:40.010462] 9
[2025-04-13 13:55:40.010462] 64
[2025-04-13 13:55:40.010462] 100
[2025-04-13 13:55:40.011445] 121
[2025-04-13 13:55:40.011445] 169
[2025-04-13 13:55:40.019407] 144
[2025-04-13 13:55:40.019407] 121
[2025-04-13 13:55:40.020407] 64
[2025-04-13 13:55:40.020407] 36
[2025-04-13 13:55:40.020407] 1
[2025-04-13 13:55:40.020407] 9
[2025-04-13 13:55:40.020407] 64
[2025-04-13 13:55:40.020407] 144
[2025-04-13 13:55:40.028576] 196
[2025-04-13 13:55:40.028576] 121
[2025-04-13 13:55:40.028576] 36
[2025-04-13 13:55:40.028576] 1
[2025-04-13 13:55:40.028576] 16
[2025-04-13 13:55:40.028576] 64
[2025-04-13 13:55:40.029422] 121
[2025-04-13 13:55:40.029422] 169
[2025-04-13 13:55:40.037420] 196
[2025-04-13 13:55:40.037420] 169
[2025-04-13 13:55:40.038412] 121
[2025-04-13 13:55:40.038412] 81
[2025-04-13 13:55:40.038412] 25
[2025-04-13 13:55:40.038412] 0
[2025-04-13 13:55:40.038412] 16
[2025-04-13 13:55:40.046581] 81
[2025-04-13 13:55:40.046581] 169
[2025-04-13 13:55:40.046581] 169
[2025-04-13 13:55:40.047621] 100
[2025-04-13 13:55:40.047621] 36
[2025-04-13 13:55:40.047621] 1
[2025-04-13 13:55:40.047621] 9
[2025-04-13 13:55:40.047621] 64
[2025-04-13 13:55:40.054976] 121
[2025-04-13 13:55:40.054976] 169
[2025-04-13 13:55:40.054976] 169
[2025-04-13 13:55:40.054976] 144
[2025-04-13 13:55:40.054976] 100
[2025-04-13 13:55:40.054976] 64
[2025-04-13 13:55:40.054976] 16
[2025-04-13 13:55:40.063981] 0
[2025-04-13 13:55:40.063981] 25
[2025-04-13 13:55:40.063981] 100
[2025-04-13 13:55:40.063981] 169
[2025-04-13 13:55:40.063981] 144
[2025-04-13 13:55:40.064981] 81
[2025-04-13 13:55:40.064981] 16
[2025-04-13 13:55:40.072595] 0
[2025-04-13 13:55:40.072595] 25
[2025-04-13 13:55:40.072595] 81
[2025-04-13 13:55:40.072595] 144
[2025-04-13 13:55:40.072595] 169
[2025-04-13 13:55:40.072595] 144
[2025-04-13 13:55:40.072595] 121
[2025-04-13 13:55:40.081612] 81
[2025-04-13 13:55:40.081612] 64
[2025-04-13 13:55:40.081612] 16
[2025-04-13 13:55:40.081612] 0
[2025-04-13 13:55:40.081612] 16
[2025-04-13 13:55:40.081612] 81
[2025-04-13 13:55:40.081612] 144
[2025-04-13 13:55:40.081612] 121
[2025-04-13 13:55:40.090418] 81
[2025-04-13 13:55:40.090418] 25
[2025-04-13 13:55:40.090418] 0
[2025-04-13 13:55:40.090418] 25
[2025-04-13 13:55:40.090418] 64
[2025-04-13 13:55:40.090418] 121
[2025-04-13 13:55:40.090418] 169
[2025-04-13 13:55:40.090418] 169
[2025-04-13 13:55:40.099492] 121
[2025-04-13 13:55:40.099492] 81
[2025-04-13 13:55:40.099492] 36
[2025-04-13 13:55:40.099492] 9
[2025-04-13 13:55:40.099492] 1
[2025-04-13 13:55:40.099492] 36
[2025-04-13 13:55:40.100438] 100
[2025-04-13 13:55:40.108437] 169
[2025-04-13 13:55:40.108437] 121
[2025-04-13 13:55:40.108437] 64
[2025-04-13 13:55:40.109437] 4
[2025-04-13 13:55:40.109437] 9
[2025-04-13 13:55:40.109437] 64
[2025-04-13 13:55:40.109437] 121
[2025-04-13 13:55:40.109437] 144
[2025-04-13 13:55:40.118270] 144
[2025-04-13 13:55:40.118270] 121
[2025-04-13 13:55:40.118270] 81
[2025-04-13 13:55:40.118270] 49
[2025-04-13 13:55:40.118270] 36
[2025-04-13 13:55:40.118270] 4
[2025-04-13 13:55:40.118270] 9
[2025-04-13 13:55:40.118270] 49
[2025-04-13 13:55:40.128129] 121
[2025-04-13 13:55:40.128129] 169
[2025-04-13 13:55:40.128129] 121
[2025-04-13 13:55:40.129210] 49
[2025-04-13 13:55:40.129210] 1
[2025-04-13 13:55:40.129210] 16
[2025-04-13 13:55:40.129210] 49
[2025-04-13 13:55:40.135199] 100
[2025-04-13 13:55:40.135199] 169
[2025-04-13 13:55:40.135199] 196
[2025-04-13 13:55:40.135199] 196
[2025-04-13 13:55:40.135199] 121
[2025-04-13 13:55:40.135199] 64
[2025-04-13 13:55:40.135199] 25
[2025-04-13 13:55:40.135199] 0
[2025-04-13 13:55:40.144529] 16
[2025-04-13 13:55:40.144529] 81
[2025-04-13 13:55:40.144529] 144
[2025-04-13 13:55:40.144529] 169
[2025-04-13 13:55:40.144529] 121
[2025-04-13 13:55:40.144529] 49
[2025-04-13 13:55:40.144529] 1
[2025-04-13 13:55:40.152674] 4
[2025-04-13 13:55:40.152674] 49
[2025-04-13 13:55:40.152674] 121
[2025-04-13 13:55:40.152674] 169
[2025-04-13 13:55:40.152674] 225
[2025-04-13 13:55:40.152674] 196
[2025-04-13 13:55:40.153567] 121
[2025-04-13 13:55:40.160532] 81
[2025-04-13 13:55:40.161546] 36
[2025-04-13 13:55:40.161546] 1
[2025-04-13 13:55:40.161546] 16
[2025-04-13 13:55:40.161546] 100
[2025-04-13 13:55:40.161546] 196
[2025-04-13 13:55:40.161546] 225
[2025-04-13 13:55:40.170515] 144
[2025-04-13 13:55:40.170515] 49
[2025-04-13 13:55:40.170515] 4
[2025-04-13 13:55:40.170515] 9
[2025-04-13 13:55:40.170515] 64
[2025-04-13 13:55:40.170515] 121
[2025-04-13 13:55:40.170515] 196
[2025-04-13 13:55:40.170515] 196
[2025-04-13 13:55:40.178550] 196
[2025-04-13 13:55:40.178550] 144
[2025-04-13 13:55:40.179541] 81
[2025-04-13 13:55:40.179541] 36
[2025-04-13 13:55:40.179541] 0
[2025-04-13 13:55:40.179541] 25
[2025-04-13 13:55:40.179541] 81
[2025-04-13 13:55:40.179541] 144
[2025-04-13 13:55:40.188549] 169
[2025-04-13 13:55:40.188549] 81
[2025-04-13 13:55:40.188549] 25
[2025-04-13 13:55:40.188549] 1
[2025-04-13 13:55:40.188549] 9
[2025-04-13 13:55:40.188549] 49
[2025-04-13 13:55:40.188549] 100
[2025-04-13 13:55:40.197053] 144
[2025-04-13 13:55:40.198000] 169
[2025-04-13 13:55:40.198000] 169
[2025-04-13 13:55:40.198000] 121
[2025-04-13 13:55:40.198000] 64
[2025-04-13 13:55:40.198000] 16
[2025-04-13 13:55:40.198000] 1
[2025-04-13 13:55:40.198000] 25
[2025-04-13 13:55:40.206145] 100
[2025-04-13 13:55:40.206145] 144
[2025-04-13 13:55:40.206145] 144
[2025-04-13 13:55:40.206145] 81
[2025-04-13 13:55:40.206145] 16
[2025-04-13 13:55:40.206145] 0
[2025-04-13 13:55:40.206145] 36
[2025-04-13 13:55:40.215732] 81
[2025-04-13 13:55:40.215732] 144
[2025-04-13 13:55:40.215732] 144
[2025-04-13 13:55:40.215732] 144
[2025-04-13 13:55:40.215732] 81
[2025-04-13 13:55:40.215732] 64
[2025-04-13 13:55:40.215732] 36
[2025-04-13 13:55:40.215732] 4
[2025-04-13 13:55:40.224868] 1
[2025-04-13 13:55:40.224868] 36
[2025-04-13 13:55:40.224868] 81
[2025-04-13 13:55:40.224868] 121
[2025-04-13 13:55:40.224868] 81
[2025-04-13 13:55:40.225769] 36
[2025-04-13 13:55:40.225769] 4
[2025-04-13 13:55:40.225769] 1
[2025-04-13 13:55:40.233370] 25
[2025-04-13 13:55:40.233370] 64
[2025-04-13 13:55:40.233370] 100
[2025-04-13 13:55:40.233370] 144
[2025-04-13 13:55:40.233370] 144
[2025-04-13 13:55:40.233370] 100
[2025-04-13 13:55:40.233370] 81
[2025-04-13 13:55:40.242376] 36
[2025-04-13 13:55:40.242376] 9
[2025-04-13 13:55:40.242376] 1
[2025-04-13 13:55:40.242376] 36
[2025-04-13 13:55:40.242376] 100
[2025-04-13 13:55:40.242376] 169
[2025-04-13 13:55:40.242376] 144
[2025-04-13 13:55:40.242376] 64
[2025-04-13 13:55:40.251222] 9
[2025-04-13 13:55:40.251381] 1
[2025-04-13 13:55:40.251381] 36
[2025-04-13 13:55:40.251381] 121
[2025-04-13 13:55:40.251381] 144
[2025-04-13 13:55:40.252390] 169
[2025-04-13 13:55:40.252390] 144
[2025-04-13 13:55:40.260388] 121
[2025-04-13 13:55:40.260388] 81
[2025-04-13 13:55:40.260388] 49
[2025-04-13 13:55:40.260388] 9
[2025-04-13 13:55:40.260388] 9
[2025-04-13 13:55:40.261390] 49
[2025-04-13 13:55:40.261390] 121
[2025-04-13 13:55:40.261390] 196
[2025-04-13 13:55:40.269928] 169
[2025-04-13 13:55:40.269928] 81
[2025-04-13 13:55:40.269928] 9
[2025-04-13 13:55:40.269928] 4
[2025-04-13 13:55:40.269928] 64
[2025-04-13 13:55:40.269928] 121
[2025-04-13 13:55:40.269928] 169
[2025-04-13 13:55:40.269928] 196
[2025-04-13 13:55:40.278038] 196
[2025-04-13 13:55:40.278038] 144
[2025-04-13 13:55:40.278038] 81
[2025-04-13 13:55:40.278927] 36
[2025-04-13 13:55:40.278927] 4
[2025-04-13 13:55:40.278927] 4
[2025-04-13 13:55:40.278927] 49
[2025-04-13 13:55:40.278927] 144
[2025-04-13 13:55:40.287052] 169
[2025-04-13 13:55:40.287052] 144
[2025-04-13 13:55:40.288145] 81
[2025-04-13 13:55:40.288145] 9
[2025-04-13 13:55:40.288145] 1
[2025-04-13 13:55:40.288145] 25
[2025-04-13 13:55:40.288145] 81
[2025-04-13 13:55:40.297201] 144
[2025-04-13 13:55:40.297201] 196
[2025-04-13 13:55:40.297201] 196
[2025-04-13 13:55:40.297201] 144
[2025-04-13 13:55:40.297201] 100
[2025-04-13 13:55:40.298192] 49
[2025-04-13 13:55:40.298192] 4
[2025-04-13 13:55:40.298192] 4
[2025-04-13 13:55:40.305331] 64
[2025-04-13 13:55:40.305331] 121
[2025-04-13 13:55:40.305331] 169
[2025-04-13 13:55:40.305331] 121
[2025-04-13 13:55:40.305331] 64
[2025-04-13 13:55:40.305331] 9
[2025-04-13 13:55:40.305331] 4
[2025-04-13 13:55:40.305331] 36
[2025-04-13 13:55:40.315211] 100
[2025-04-13 13:55:40.315211] 144
[2025-04-13 13:55:40.315211] 169
[2025-04-13 13:55:40.315211] 169
[2025-04-13 13:55:40.315211] 121
[2025-04-13 13:55:40.315211] 81
[2025-04-13 13:55:40.322684] 36
[2025-04-13 13:55:40.322684] 1
[2025-04-13 13:55:40.322684] 4
[2025-04-13 13:55:40.322684] 49
[2025-04-13 13:55:40.322684] 144
[2025-04-13 13:55:40.323724] 169
[2025-04-13 13:55:40.323724] 121
[2025-04-13 13:55:40.323724] 49
[2025-04-13 13:55:40.331857] 1
[2025-04-13 13:55:40.331857] 9
[2025-04-13 13:55:40.331857] 49
[2025-04-13 13:55:40.331857] 100
[2025-04-13 13:55:40.331857] 144
[2025-04-13 13:55:40.331857] 169
[2025-04-13 13:55:40.331857] 144
[2025-04-13 13:55:40.340975] 100
[2025-04-13 13:55:40.340975] 64
[2025-04-13 13:55:40.340975] 25
[2025-04-13 13:55:40.340975] 0
[2025-04-13 13:55:40.340975] 16
[2025-04-13 13:55:40.340975] 64
[2025-04-13 13:55:40.340975] 144
[2025-04-13 13:55:40.340975] 144
[2025-04-13 13:55:40.348754] 121
[2025-04-13 13:55:40.348754] 25
[2025-04-13 13:55:40.349979] 1
[2025-04-13 13:55:40.349979] 16
[2025-04-13 13:55:40.349979] 64
[2025-04-13 13:55:40.349979] 121
[2025-04-13 13:55:40.349979] 196
[2025-04-13 13:55:40.358041] 225
[2025-04-13 13:55:40.359009] 169
[2025-04-13 13:55:40.359009] 144
[2025-04-13 13:55:40.359009] 81
[2025-04-13 13:55:40.359009] 16
[2025-04-13 13:55:40.359009] 0
[2025-04-13 13:55:40.359009] 36
[2025-04-13 13:55:40.359009] 100
[2025-04-13 13:55:40.367321] 169
[2025-04-13 13:55:40.367321] 169
[2025-04-13 13:55:40.367321] 100
[2025-04-13 13:55:40.367321] 25
[2025-04-13 13:55:40.367321] 0
[2025-04-13 13:55:40.367321] 25
[2025-04-13 13:55:40.367321] 81
[2025-04-13 13:55:40.375312] 100
[2025-04-13 13:55:40.375312] 144
[2025-04-13 13:55:40.375312] 144
[2025-04-13 13:55:40.375312] 144
[2025-04-13 13:55:40.376201] 100
[2025-04-13 13:55:40.376201] 64
[2025-04-13 13:55:40.376201] 16
[2025-04-13 13:55:40.384313] 1
[2025-04-13 13:55:40.385172] 25
[2025-04-13 13:55:40.385172] 100
[2025-04-13 13:55:40.385172] 144
[2025-04-13 13:55:40.385172] 121
[2025-04-13 13:55:40.385172] 64
[2025-04-13 13:55:40.385172] 9
[2025-04-13 13:55:40.385172] 0
[2025-04-13 13:55:40.393398] 16
[2025-04-13 13:55:40.393398] 64
[2025-04-13 13:55:40.393398] 100
[2025-04-13 13:55:40.393398] 121
[2025-04-13 13:55:40.393398] 144
[2025-04-13 13:55:40.393398] 144
[2025-04-13 13:55:40.393398] 100
[2025-04-13 13:55:40.402548] 49
[2025-04-13 13:55:40.402548] 9
[2025-04-13 13:55:40.402548] 1
[2025-04-13 13:55:40.402548] 36
[2025-04-13 13:55:40.402548] 81
[2025-04-13 13:55:40.402548] 121
[2025-04-13 13:55:40.402548] 121
[2025-04-13 13:55:40.402548] 49
[2025-04-13 13:55:40.411373] 9
[2025-04-13 13:55:40.411373] 1
[2025-04-13 13:55:40.411373] 25
[2025-04-13 13:55:40.411373] 81
[2025-04-13 13:55:40.411373] 121
[2025-04-13 13:55:40.411373] 144
[2025-04-13 13:55:40.411373] 144
[2025-04-13 13:55:40.420080] 100
[2025-04-13 13:55:40.420080] 64
[2025-04-13 13:55:40.420956] 36
[2025-04-13 13:55:40.420956] 4
[2025-04-13 13:55:40.420956] 4
[2025-04-13 13:55:40.420956] 49
[2025-04-13 13:55:40.420956] 100
[2025-04-13 13:55:40.420956] 121
[2025-04-13 13:55:40.430102] 100
[2025-04-13 13:55:40.430102] 49
[2025-04-13 13:55:40.430102] 1
[2025-04-13 13:55:40.430102] 9
[2025-04-13 13:55:40.430102] 36
[2025-04-13 13:55:40.430102] 100
[2025-04-13 13:55:40.430102] 121
[2025-04-13 13:55:40.430102] 169
[2025-04-13 13:55:40.438314] 169
[2025-04-13 13:55:40.438314] 121
[2025-04-13 13:55:40.438314] 81
[2025-04-13 13:55:40.438314] 25
[2025-04-13 13:55:40.438314] 0
[2025-04-13 13:55:40.439299] 9
[2025-04-13 13:55:40.439299] 64
[2025-04-13 13:55:40.439299] 121
[2025-04-13 13:55:40.447218] 144
[2025-04-13 13:55:40.447218] 100
[2025-04-13 13:55:40.447218] 36
[2025-04-13 13:55:40.448209] 4
[2025-04-13 13:55:40.448209] 9
[2025-04-13 13:55:40.448209] 49
[2025-04-13 13:55:40.448209] 100
[2025-04-13 13:55:40.457123] 169
[2025-04-13 13:55:40.457123] 169
[2025-04-13 13:55:40.457123] 144
[2025-04-13 13:55:40.457123] 100
[2025-04-13 13:55:40.457123] 81
[2025-04-13 13:55:40.457123] 36
[2025-04-13 13:55:40.457123] 1
[2025-04-13 13:55:40.457123] 9
[2025-04-13 13:55:40.465279] 64
[2025-04-13 13:55:40.465279] 121
[2025-04-13 13:55:40.465279] 169
[2025-04-13 13:55:40.465279] 121
[2025-04-13 13:55:40.465279] 49
[2025-04-13 13:55:40.465279] 1
[2025-04-13 13:55:40.465279] 16
[2025-04-13 13:55:40.474035] 64
[2025-04-13 13:55:40.474035] 121
[2025-04-13 13:55:40.474035] 169
[2025-04-13 13:55:40.474035] 196
[2025-04-13 13:55:40.474035] 144
[2025-04-13 13:55:40.474035] 121
[2025-04-13 13:55:40.474035] 64
[2025-04-13 13:55:40.482376] 25
[2025-04-13 13:55:40.482376] 0
[2025-04-13 13:55:40.482376] 25
[2025-04-13 13:55:40.482376] 81
[2025-04-13 13:55:40.483226] 144
[2025-04-13 13:55:40.483226] 169
[2025-04-13 13:55:40.483226] 121
[2025-04-13 13:55:40.483226] 36
[2025-04-13 13:55:40.491224] 0
[2025-04-13 13:55:40.491224] 16
[2025-04-13 13:55:40.491224] 64
[2025-04-13 13:55:40.491224] 121
[2025-04-13 13:55:40.491224] 169
[2025-04-13 13:55:40.491224] 169
[2025-04-13 13:55:40.492256] 144
[2025-04-13 13:55:40.502363] 100
[2025-04-13 13:55:40.502363] 64
[2025-04-13 13:55:40.502363] 16
[2025-04-13 13:55:40.502363] 0
[2025-04-13 13:55:40.502363] 16
[2025-04-13 13:55:40.502363] 100
[2025-04-13 13:55:40.502363] 169
[2025-04-13 13:55:40.508578] 169
[2025-04-13 13:55:40.508578] 100
[2025-04-13 13:55:40.508578] 25
[2025-04-13 13:55:40.508578] 0
[2025-04-13 13:55:40.508578] 36
[2025-04-13 13:55:40.508578] 100
[2025-04-13 13:55:40.508578] 144
[2025-04-13 13:55:40.517179] 169
[2025-04-13 13:55:40.517179] 169
[2025-04-13 13:55:40.518180] 144
[2025-04-13 13:55:40.518180] 100
[2025-04-13 13:55:40.518180] 64
[2025-04-13 13:55:40.518180] 16
[2025-04-13 13:55:40.518180] 1
[2025-04-13 13:55:40.518180] 36
[2025-04-13 13:55:40.526332] 121
[2025-04-13 13:55:40.526332] 169
[2025-04-13 13:55:40.526332] 169
[2025-04-13 13:55:40.526332] 64
[2025-04-13 13:55:40.526332] 9
[2025-04-13 13:55:40.526332] 1
[2025-04-13 13:55:40.526332] 36
[2025-04-13 13:55:40.526332] 64
[2025-04-13 13:55:40.534447] 121
[2025-04-13 13:55:40.534447] 169
[2025-04-13 13:55:40.534447] 169
[2025-04-13 13:55:40.534447] 144
[2025-04-13 13:55:40.535684] 121
[2025-04-13 13:55:40.535684] 64
[2025-04-13 13:55:40.535684] 9
[2025-04-13 13:55:40.543232] 4
[2025-04-13 13:55:40.543232] 49
[2025-04-13 13:55:40.544273] 121
[2025-04-13 13:55:40.544273] 169
[2025-04-13 13:55:40.544273] 144
[2025-04-13 13:55:40.544273] 81
[2025-04-13 13:55:40.544273] 16
[2025-04-13 13:55:40.552273] 1
[2025-04-13 13:55:40.552273] 49
[2025-04-13 13:55:40.552273] 100
[2025-04-13 13:55:40.553239] 144
[2025-04-13 13:55:40.553239] 196
[2025-04-13 13:55:40.553239] 169
[2025-04-13 13:55:40.553239] 121
[2025-04-13 13:55:40.561393] 81
[2025-04-13 13:55:40.561393] 36
[2025-04-13 13:55:40.561393] 4
[2025-04-13 13:55:40.561393] 9
[2025-04-13 13:55:40.561393] 64
[2025-04-13 13:55:40.561393] 121
[2025-04-13 13:55:40.561393] 169
[2025-04-13 13:55:40.562399] 121
[2025-04-13 13:55:40.569407] 49
[2025-04-13 13:55:40.569407] 1
[2025-04-13 13:55:40.570400] 16
[2025-04-13 13:55:40.570400] 49
[2025-04-13 13:55:40.570400] 100
[2025-04-13 13:55:40.570400] 169
[2025-04-13 13:55:40.570400] 196
[2025-04-13 13:55:40.579403] 196
[2025-04-13 13:55:40.579403] 121
[2025-04-13 13:55:40.579403] 64
[2025-04-13 13:55:40.579403] 25
[2025-04-13 13:55:40.580417] 0
[2025-04-13 13:55:40.580417] 25
[2025-04-13 13:55:40.580417] 81
[2025-04-13 13:55:40.580417] 144
[2025-04-13 13:55:40.587771] 169
[2025-04-13 13:55:40.587771] 100
[2025-04-13 13:55:40.587771] 36
[2025-04-13 13:55:40.587771] 1
[2025-04-13 13:55:40.587771] 9
[2025-04-13 13:55:40.587771] 64
[2025-04-13 13:55:40.587771] 100
[2025-04-13 13:55:40.596812] 169
[2025-04-13 13:55:40.596812] 196
[2025-04-13 13:55:40.596812] 144
[2025-04-13 13:55:40.596812] 100
[2025-04-13 13:55:40.596812] 81
[2025-04-13 13:55:40.596812] 25
[2025-04-13 13:55:40.597828] 0
[2025-04-13 13:55:40.597828] 16
[2025-04-13 13:55:40.605825] 81
[2025-04-13 13:55:40.605825] 144
[2025-04-13 13:55:40.605825] 196
[2025-04-13 13:55:40.605825] 100
[2025-04-13 13:55:40.605825] 36
[2025-04-13 13:55:40.605825] 0
[2025-04-13 13:55:40.605825] 16
[2025-04-13 13:55:40.614051] 64
[2025-04-13 13:55:40.614051] 144
[2025-04-13 13:55:40.614051] 169
[2025-04-13 13:55:40.614051] 169
[2025-04-13 13:55:40.614051] 121
[2025-04-13 13:55:40.614051] 81
[2025-04-13 13:55:40.614051] 64
[2025-04-13 13:55:40.622069] 16
[2025-04-13 13:55:40.622069] 0
[2025-04-13 13:55:40.622069] 36
[2025-04-13 13:55:40.622912] 100
[2025-04-13 13:55:40.622912] 169
[2025-04-13 13:55:40.622912] 144
[2025-04-13 13:55:40.622912] 100
[2025-04-13 13:55:40.622912] 16
[2025-04-13 13:55:40.631979] 0
[2025-04-13 13:55:40.631979] 25
[2025-04-13 13:55:40.631979] 81
[2025-04-13 13:55:40.631979] 144
[2025-04-13 13:55:40.631979] 196
[2025-04-13 13:55:40.631979] 225
[2025-04-13 13:55:40.631979] 196
[2025-04-13 13:55:40.639950] 144
[2025-04-13 13:55:40.639950] 64
[2025-04-13 13:55:40.639950] 9
[2025-04-13 13:55:40.639950] 1
[2025-04-13 13:55:40.639950] 49
[2025-04-13 13:55:40.639950] 121
[2025-04-13 13:55:40.639950] 196
[2025-04-13 13:55:40.649000] 169
[2025-04-13 13:55:40.649862] 81
[2025-04-13 13:55:40.649862] 16
[2025-04-13 13:55:40.649862] 1
[2025-04-13 13:55:40.649862] 36
[2025-04-13 13:55:40.649862] 81
[2025-04-13 13:55:40.649862] 144
[2025-04-13 13:55:40.649862] 144
[2025-04-13 13:55:40.659204] 144
[2025-04-13 13:55:40.659204] 100
[2025-04-13 13:55:40.659204] 81
[2025-04-13 13:55:40.659204] 49
[2025-04-13 13:55:40.659204] 9
[2025-04-13 13:55:40.659204] 1
[2025-04-13 13:55:40.659204] 36
[2025-04-13 13:55:40.659204] 81
[2025-04-13 13:55:40.667351] 144
[2025-04-13 13:55:40.667351] 169
[2025-04-13 13:55:40.667351] 81
[2025-04-13 13:55:40.667351] 16
[2025-04-13 13:55:40.667351] 1
[2025-04-13 13:55:40.667351] 36
[2025-04-13 13:55:40.667351] 121
[2025-04-13 13:55:40.676429] 169
[2025-04-13 13:55:40.676429] 169
[2025-04-13 13:55:40.676429] 144
[2025-04-13 13:55:40.676429] 100
[2025-04-13 13:55:40.676429] 64
[2025-04-13 13:55:40.676429] 36
[2025-04-13 13:55:40.676429] 4
[2025-04-13 13:55:40.676429] 4
[2025-04-13 13:55:40.686099] 49
[2025-04-13 13:55:40.686099] 121
[2025-04-13 13:55:40.686099] 121
[2025-04-13 13:55:40.686099] 121
[2025-04-13 13:55:40.686099] 49
[2025-04-13 13:55:40.686099] 4
[2025-04-13 13:55:40.686099] 4
[2025-04-13 13:55:40.686099] 36
[2025-04-13 13:55:40.694250] 81
[2025-04-13 13:55:40.694250] 144
[2025-04-13 13:55:40.694250] 169
[2025-04-13 13:55:40.694250] 169
[2025-04-13 13:55:40.694250] 121
[2025-04-13 13:55:40.694250] 81
[2025-04-13 13:55:40.694250] 36
[2025-04-13 13:55:40.702979] 1
[2025-04-13 13:55:40.702979] 16
[2025-04-13 13:55:40.702979] 64
[2025-04-13 13:55:40.702979] 144
[2025-04-13 13:55:40.702979] 169
[2025-04-13 13:55:40.702979] 121
[2025-04-13 13:55:40.702979] 49
[2025-04-13 13:55:40.702979] 4
[2025-04-13 13:55:40.711294] 16
[2025-04-13 13:55:40.711294] 49
[2025-04-13 13:55:40.711294] 100
[2025-04-13 13:55:40.711294] 169
[2025-04-13 13:55:40.711294] 169
[2025-04-13 13:55:40.711294] 169
[2025-04-13 13:55:40.720153] 121
[2025-04-13 13:55:40.720153] 81
[2025-04-13 13:55:40.721158] 25
[2025-04-13 13:55:40.721158] 1
[2025-04-13 13:55:40.721158] 16
[2025-04-13 13:55:40.721158] 81
[2025-04-13 13:55:40.721158] 144
[2025-04-13 13:55:40.722157] 169
[2025-04-13 13:55:40.729119] 121
[2025-04-13 13:55:40.729119] 25
[2025-04-13 13:55:40.729119] 0
[2025-04-13 13:55:40.729119] 25
[2025-04-13 13:55:40.729119] 81
[2025-04-13 13:55:40.730133] 121
[2025-04-13 13:55:40.730133] 144
[2025-04-13 13:55:40.737735] 169
[2025-04-13 13:55:40.738734] 144
[2025-04-13 13:55:40.738734] 100
[2025-04-13 13:55:40.738734] 64
[2025-04-13 13:55:40.738734] 25
[2025-04-13 13:55:40.738734] 0
[2025-04-13 13:55:40.738734] 36
[2025-04-13 13:55:40.738734] 100
[2025-04-13 13:55:40.746744] 144
[2025-04-13 13:55:40.746744] 144
[2025-04-13 13:55:40.746744] 81
[2025-04-13 13:55:40.747738] 25
[2025-04-13 13:55:40.747738] 0
[2025-04-13 13:55:40.747738] 16
[2025-04-13 13:55:40.747738] 64
[2025-04-13 13:55:40.755417] 121
[2025-04-13 13:55:40.755417] 144
[2025-04-13 13:55:40.755417] 169
[2025-04-13 13:55:40.755417] 144
[2025-04-13 13:55:40.755417] 100
[2025-04-13 13:55:40.755417] 64
[2025-04-13 13:55:40.755417] 16
[2025-04-13 13:55:40.755417] 1
[2025-04-13 13:55:40.764564] 25
[2025-04-13 13:55:40.764564] 100
[2025-04-13 13:55:40.764564] 144
[2025-04-13 13:55:40.764564] 121
[2025-04-13 13:55:40.764564] 81
[2025-04-13 13:55:40.764564] 25
[2025-04-13 13:55:40.764564] 0
[2025-04-13 13:55:40.773114] 16
[2025-04-13 13:55:40.773114] 81
[2025-04-13 13:55:40.773114] 121
[2025-04-13 13:55:40.773114] 169
[2025-04-13 13:55:40.773114] 169
[2025-04-13 13:55:40.773114] 144
[2025-04-13 13:55:40.773114] 100
[2025-04-13 13:55:40.780823] 49
[2025-04-13 13:55:40.781769] 9
[2025-04-13 13:55:40.781769] 1
[2025-04-13 13:55:40.781769] 49
[2025-04-13 13:55:40.781769] 100
[2025-04-13 13:55:40.781769] 144
[2025-04-13 13:55:40.781769] 144
[2025-04-13 13:55:40.781769] 81
[2025-04-13 13:55:40.790911] 9
[2025-04-13 13:55:40.790911] 9
[2025-04-13 13:55:40.790911] 64
[2025-04-13 13:55:40.790911] 100
[2025-04-13 13:55:40.790911] 144
[2025-04-13 13:55:40.790911] 144
[2025-04-13 13:55:40.790911] 121
[2025-04-13 13:55:40.800346] 100
[2025-04-13 13:55:40.800346] 64
[2025-04-13 13:55:40.800346] 49
[2025-04-13 13:55:40.800346] 9
[2025-04-13 13:55:40.800346] 4
[2025-04-13 13:55:40.800346] 64
[2025-04-13 13:55:40.800346] 144
[2025-04-13 13:55:40.800346] 169
[2025-04-13 13:55:40.808492] 144
[2025-04-13 13:55:40.808492] 49
[2025-04-13 13:55:40.808492] 4
[2025-04-13 13:55:40.808492] 9
[2025-04-13 13:55:40.808492] 49
[2025-04-13 13:55:40.808492] 121
[2025-04-13 13:55:40.809351] 144
[2025-04-13 13:55:40.817371] 196
[2025-04-13 13:55:40.818354] 169
[2025-04-13 13:55:40.818354] 121
[2025-04-13 13:55:40.818354] 81
[2025-04-13 13:55:40.818354] 25
[2025-04-13 13:55:40.818354] 1
[2025-04-13 13:55:40.818354] 9
[2025-04-13 13:55:40.819361] 64
[2025-04-13 13:55:40.826539] 121
[2025-04-13 13:55:40.826539] 169
[2025-04-13 13:55:40.826539] 121
[2025-04-13 13:55:40.826539] 49
[2025-04-13 13:55:40.826539] 1
[2025-04-13 13:55:40.827079] 16
[2025-04-13 13:55:40.827079] 64
[2025-04-13 13:55:40.827079] 121
[2025-04-13 13:55:40.835142] 144
[2025-04-13 13:55:40.835142] 169
[2025-04-13 13:55:40.835142] 144
[2025-04-13 13:55:40.836119] 100
[2025-04-13 13:55:40.836119] 64
[2025-04-13 13:55:40.836119] 36
[2025-04-13 13:55:40.836119] 4
[2025-04-13 13:55:40.844093] 9
[2025-04-13 13:55:40.844093] 64
[2025-04-13 13:55:40.844093] 144
[2025-04-13 13:55:40.844093] 169
[2025-04-13 13:55:40.845108] 121
[2025-04-13 13:55:40.845108] 49
[2025-04-13 13:55:40.845108] 1
[2025-04-13 13:55:40.845108] 16
[2025-04-13 13:55:40.852408] 64
[2025-04-13 13:55:40.852408] 144
[2025-04-13 13:55:40.852408] 169
[2025-04-13 13:55:40.852408] 196
[2025-04-13 13:55:40.852408] 169
[2025-04-13 13:55:40.852408] 121
[2025-04-13 13:55:40.861282] 81
[2025-04-13 13:55:40.861282] 16
[2025-04-13 13:55:40.862137] 1
[2025-04-13 13:55:40.862137] 49
[2025-04-13 13:55:40.862137] 121
[2025-04-13 13:55:40.862137] 169
[2025-04-13 13:55:40.862137] 144
[2025-04-13 13:55:40.862137] 81
[2025-04-13 13:55:40.870282] 16
[2025-04-13 13:55:40.870282] 1
[2025-04-13 13:55:40.870282] 36
[2025-04-13 13:55:40.870282] 81
[2025-04-13 13:55:40.870282] 121
[2025-04-13 13:55:40.870282] 144
[2025-04-13 13:55:40.870282] 144
[2025-04-13 13:55:40.879265] 121
[2025-04-13 13:55:40.879265] 81
[2025-04-13 13:55:40.879265] 49
[2025-04-13 13:55:40.879265] 16
[2025-04-13 13:55:40.879265] 0
[2025-04-13 13:55:40.879265] 25
[2025-04-13 13:55:40.879265] 100
[2025-04-13 13:55:40.880265] 169
[2025-04-13 13:55:40.888256] 169
[2025-04-13 13:55:40.888256] 100
[2025-04-13 13:55:40.888256] 16
[2025-04-13 13:55:40.888256] 0
[2025-04-13 13:55:40.888256] 36
[2025-04-13 13:55:40.888256] 100
[2025-04-13 13:55:40.888256] 121
[2025-04-13 13:55:40.896268] 169
[2025-04-13 13:55:40.896268] 169
[2025-04-13 13:55:40.896268] 144
[2025-04-13 13:55:40.896268] 100
[2025-04-13 13:55:40.896268] 49
[2025-04-13 13:55:40.896268] 9
[2025-04-13 13:55:40.896268] 4
[2025-04-13 13:55:40.896268] 49
[2025-04-13 13:55:40.905824] 121
[2025-04-13 13:55:40.906296] 169
[2025-04-13 13:55:40.906296] 144
[2025-04-13 13:55:40.906296] 64
[2025-04-13 13:55:40.906296] 9
[2025-04-13 13:55:40.906296] 4
[2025-04-13 13:55:40.907319] 49
[2025-04-13 13:55:40.914325] 100
[2025-04-13 13:55:40.914325] 169
[2025-04-13 13:55:40.914325] 196
[2025-04-13 13:55:40.914325] 169
[2025-04-13 13:55:40.914325] 144
[2025-04-13 13:55:40.914325] 81
[2025-04-13 13:55:40.915334] 36
[2025-04-13 13:55:40.922917] 4
[2025-04-13 13:55:40.922917] 9
[2025-04-13 13:55:40.922917] 49
[2025-04-13 13:55:40.922917] 121
[2025-04-13 13:55:40.923927] 144
[2025-04-13 13:55:40.923927] 121
[2025-04-13 13:55:40.923927] 49
[2025-04-13 13:55:40.923927] 4
[2025-04-13 13:55:40.932041] 9
[2025-04-13 13:55:40.932041] 64
[2025-04-13 13:55:40.932041] 100
[2025-04-13 13:55:40.932041] 121
[2025-04-13 13:55:40.932041] 169
[2025-04-13 13:55:40.932041] 169
[2025-04-13 13:55:40.932041] 121
[2025-04-13 13:55:40.940620] 81
[2025-04-13 13:55:40.940620] 36
[2025-04-13 13:55:40.940620] 0
[2025-04-13 13:55:40.940620] 16
[2025-04-13 13:55:40.940620] 81
[2025-04-13 13:55:40.940620] 144
[2025-04-13 13:55:40.941089] 144
[2025-04-13 13:55:40.941089] 144
[2025-04-13 13:55:40.949542] 49
[2025-04-13 13:55:40.949542] 1
[2025-04-13 13:55:40.949542] 9
[2025-04-13 13:55:40.950400] 49
[2025-04-13 13:55:40.950400] 100
[2025-04-13 13:55:40.950400] 144
[2025-04-13 13:55:40.950400] 169
[2025-04-13 13:55:40.959374] 169
[2025-04-13 13:55:40.959374] 121
[2025-04-13 13:55:40.959374] 81
[2025-04-13 13:55:40.959374] 25
[2025-04-13 13:55:40.959374] 1
[2025-04-13 13:55:40.959374] 9
[2025-04-13 13:55:40.959374] 64
[2025-04-13 13:55:40.959374] 121
[2025-04-13 13:55:40.967520] 144
[2025-04-13 13:55:40.967520] 100
[2025-04-13 13:55:40.967520] 36
[2025-04-13 13:55:40.967520] 4
[2025-04-13 13:55:40.967520] 4
[2025-04-13 13:55:40.967520] 49
[2025-04-13 13:55:40.967520] 100
[2025-04-13 13:55:40.967520] 169
[2025-04-13 13:55:40.976387] 196
[2025-04-13 13:55:40.976387] 169
[2025-04-13 13:55:40.976387] 121
[2025-04-13 13:55:40.976387] 81
[2025-04-13 13:55:40.977413] 25
[2025-04-13 13:55:40.977413] 0
[2025-04-13 13:55:40.977413] 16
[2025-04-13 13:55:40.985340] 81
[2025-04-13 13:55:40.985340] 144
[2025-04-13 13:55:40.985340] 169
[2025-04-13 13:55:40.985340] 100
[2025-04-13 13:55:40.985340] 25
[2025-04-13 13:55:40.985340] 0
[2025-04-13 13:55:40.985340] 16
[2025-04-13 13:55:40.985340] 64
[2025-04-13 13:55:40.993843] 121
[2025-04-13 13:55:40.993843] 144
[2025-04-13 13:55:40.993843] 169
[2025-04-13 13:55:40.993843] 144
[2025-04-13 13:55:40.993843] 100
[2025-04-13 13:55:40.993843] 49
[2025-04-13 13:55:40.993843] 9
[2025-04-13 13:55:41.002870] 0
[2025-04-13 13:55:41.002870] 36
[2025-04-13 13:55:41.002870] 81
[2025-04-13 13:55:41.002870] 144
[2025-04-13 13:55:41.003866] 144
[2025-04-13 13:55:41.003866] 81
[2025-04-13 13:55:41.003866] 16
[2025-04-13 13:55:41.003866] 0
[2025-04-13 13:55:41.010866] 25
[2025-04-13 13:55:41.011870] 81
[2025-04-13 13:55:41.011870] 144
[2025-04-13 13:55:41.011870] 144
[2025-04-13 13:55:41.011870] 169
[2025-04-13 13:55:41.011870] 144
[2025-04-13 13:55:41.020203] 100
[2025-04-13 13:55:41.020203] 49
[2025-04-13 13:55:41.020203] 16
[2025-04-13 13:55:41.020203] 1
[2025-04-13 13:55:41.021246] 36
[2025-04-13 13:55:41.021246] 121
[2025-04-13 13:55:41.021246] 169
[2025-04-13 13:55:41.021246] 144
[2025-04-13 13:55:41.029352] 81
[2025-04-13 13:55:41.029352] 9
[2025-04-13 13:55:41.029352] 4
[2025-04-13 13:55:41.029352] 36
[2025-04-13 13:55:41.029352] 81
[2025-04-13 13:55:41.029352] 121
[2025-04-13 13:55:41.029352] 144
[2025-04-13 13:55:41.029352] 144
[2025-04-13 13:55:41.038596] 144
[2025-04-13 13:55:41.038596] 100
[2025-04-13 13:55:41.038596] 64
[2025-04-13 13:55:41.038596] 16
[2025-04-13 13:55:41.039391] 1
[2025-04-13 13:55:41.039391] 36
[2025-04-13 13:55:41.039391] 144
[2025-04-13 13:55:41.047708] 196
[2025-04-13 13:55:41.047708] 169
[2025-04-13 13:55:41.048700] 81
[2025-04-13 13:55:41.048700] 9
[2025-04-13 13:55:41.048700] 9
[2025-04-13 13:55:41.048700] 49
[2025-04-13 13:55:41.048700] 81
[2025-04-13 13:55:41.048700] 144
[2025-04-13 13:55:41.056205] 169
[2025-04-13 13:55:41.056205] 169
[2025-04-13 13:55:41.056205] 121
[2025-04-13 13:55:41.056205] 100
[2025-04-13 13:55:41.056205] 49
[2025-04-13 13:55:41.057093] 4
[2025-04-13 13:55:41.057093] 4
[2025-04-13 13:55:41.065204] 49
[2025-04-13 13:55:41.066062] 144
[2025-04-13 13:55:41.066062] 169
[2025-04-13 13:55:41.066062] 144
[2025-04-13 13:55:41.066062] 81
[2025-04-13 13:55:41.066062] 9
[2025-04-13 13:55:41.066062] 1
[2025-04-13 13:55:41.066062] 36
[2025-04-13 13:55:41.074206] 81
[2025-04-13 13:55:41.074206] 144
[2025-04-13 13:55:41.074206] 169
[2025-04-13 13:55:41.074206] 169
[2025-04-13 13:55:41.074206] 144
[2025-04-13 13:55:41.074206] 100
[2025-04-13 13:55:41.074206] 36
[2025-04-13 13:55:41.083143] 4
[2025-04-13 13:55:41.083143] 1
[2025-04-13 13:55:41.083143] 36
[2025-04-13 13:55:41.083143] 121
[2025-04-13 13:55:41.083143] 144
[2025-04-13 13:55:41.083143] 121
[2025-04-13 13:55:41.083143] 49
[2025-04-13 13:55:41.083143] 4
[2025-04-13 13:55:41.091151] 9
[2025-04-13 13:55:41.092155] 64
[2025-04-13 13:55:41.092155] 100
[2025-04-13 13:55:41.092155] 121
[2025-04-13 13:55:41.092155] 144
[2025-04-13 13:55:41.092155] 121
[2025-04-13 13:55:41.092155] 100
[2025-04-13 13:55:41.100254] 81
[2025-04-13 13:55:41.100254] 36
[2025-04-13 13:55:41.100254] 1
[2025-04-13 13:55:41.100254] 16
[2025-04-13 13:55:41.100254] 64
[2025-04-13 13:55:41.101304] 144
[2025-04-13 13:55:41.101304] 144
[2025-04-13 13:55:41.109397] 121
[2025-04-13 13:55:41.109397] 36
[2025-04-13 13:55:41.109397] 0
[2025-04-13 13:55:41.109397] 25
[2025-04-13 13:55:41.109397] 64
[2025-04-13 13:55:41.109397] 121
[2025-04-13 13:55:41.109397] 169
[2025-04-13 13:55:41.110429] 196
[2025-04-13 13:55:41.117395] 144
[2025-04-13 13:55:41.118395] 121
[2025-04-13 13:55:41.118395] 81
[2025-04-13 13:55:41.118395] 36
[2025-04-13 13:55:41.118395] 0
[2025-04-13 13:55:41.118395] 25
[2025-04-13 13:55:41.118395] 121
[2025-04-13 13:55:41.126311] 169
[2025-04-13 13:55:41.126311] 196
[2025-04-13 13:55:41.126311] 121
[2025-04-13 13:55:41.126311] 25
[2025-04-13 13:55:41.126311] 0
[2025-04-13 13:55:41.126311] 25
[2025-04-13 13:55:41.126311] 81
[2025-04-13 13:55:41.127290] 144
[2025-04-13 13:55:41.135396] 169
[2025-04-13 13:55:41.135396] 196
[2025-04-13 13:55:41.136289] 169
[2025-04-13 13:55:41.136289] 100
[2025-04-13 13:55:41.136289] 64
[2025-04-13 13:55:41.136289] 9
[2025-04-13 13:55:41.136289] 1
[2025-04-13 13:55:41.144536] 36
[2025-04-13 13:55:41.144536] 121
[2025-04-13 13:55:41.144536] 169
[2025-04-13 13:55:41.144536] 169
[2025-04-13 13:55:41.144536] 81
[2025-04-13 13:55:41.144536] 16
[2025-04-13 13:55:41.144536] 0
[2025-04-13 13:55:41.144536] 36
[2025-04-13 13:55:41.152152] 100
[2025-04-13 13:55:41.152152] 169
[2025-04-13 13:55:41.152152] 196
[2025-04-13 13:55:41.152152] 169
[2025-04-13 13:55:41.153207] 121
[2025-04-13 13:55:41.153207] 81
[2025-04-13 13:55:41.162177] 36
[2025-04-13 13:55:41.162177] 9
[2025-04-13 13:55:41.162177] 0
[2025-04-13 13:55:41.162177] 36
[2025-04-13 13:55:41.162177] 100
[2025-04-13 13:55:41.162177] 144
[2025-04-13 13:55:41.162177] 121
[2025-04-13 13:55:41.162177] 81
[2025-04-13 13:55:41.170601] 16
[2025-04-13 13:55:41.170601] 1
[2025-04-13 13:55:41.170601] 36
[2025-04-13 13:55:41.171327] 100
[2025-04-13 13:55:41.171327] 121
[2025-04-13 13:55:41.171327] 169
[2025-04-13 13:55:41.171327] 169
[2025-04-13 13:55:41.179679] 144
[2025-04-13 13:55:41.179679] 100
[2025-04-13 13:55:41.179679] 49
[2025-04-13 13:55:41.179679] 4
[2025-04-13 13:55:41.179679] 4
[2025-04-13 13:55:41.179679] 49
[2025-04-13 13:55:41.179679] 121
[2025-04-13 13:55:41.179679] 169
[2025-04-13 13:55:41.187804] 121
[2025-04-13 13:55:41.187804] 64
[2025-04-13 13:55:41.188786] 4
[2025-04-13 13:55:41.188786] 16
[2025-04-13 13:55:41.188786] 64
[2025-04-13 13:55:41.188786] 100
[2025-04-13 13:55:41.188786] 121
[2025-04-13 13:55:41.197818] 144
[2025-04-13 13:55:41.197818] 121
[2025-04-13 13:55:41.197818] 100
[2025-04-13 13:55:41.197818] 64
[2025-04-13 13:55:41.197818] 36
[2025-04-13 13:55:41.197818] 1
[2025-04-13 13:55:41.197818] 9
[2025-04-13 13:55:41.197818] 64
[2025-04-13 13:55:41.205817] 144
[2025-04-13 13:55:41.205817] 144
[2025-04-13 13:55:41.205817] 121
[2025-04-13 13:55:41.205817] 36
[2025-04-13 13:55:41.205817] 0
[2025-04-13 13:55:41.205817] 16
[2025-04-13 13:55:41.205817] 64
[2025-04-13 13:55:41.213993] 121
[2025-04-13 13:55:41.213993] 169
[2025-04-13 13:55:41.213993] 196
[2025-04-13 13:55:41.213993] 169
[2025-04-13 13:55:41.215000] 121
[2025-04-13 13:55:41.215000] 64
[2025-04-13 13:55:41.215000] 25
[2025-04-13 13:55:41.215000] 0
[2025-04-13 13:55:41.223000] 25
[2025-04-13 13:55:41.224001] 100
[2025-04-13 13:55:41.224001] 144
[2025-04-13 13:55:41.224001] 169
[2025-04-13 13:55:41.224001] 121
[2025-04-13 13:55:41.224001] 36
[2025-04-13 13:55:41.224001] 0
[2025-04-13 13:55:41.231492] 16
[2025-04-13 13:55:41.231492] 81
[2025-04-13 13:55:41.231492] 144
[2025-04-13 13:55:41.231492] 169
[2025-04-13 13:55:41.231492] 169
[2025-04-13 13:55:41.231492] 169
[2025-04-13 13:55:41.231492] 121
[2025-04-13 13:55:41.240775] 64
[2025-04-13 13:55:41.240775] 16
[2025-04-13 13:55:41.240775] 1
[2025-04-13 13:55:41.240775] 36
[2025-04-13 13:55:41.240775] 100
[2025-04-13 13:55:41.240775] 169
[2025-04-13 13:55:41.240775] 169
[2025-04-13 13:55:41.249795] 81
[2025-04-13 13:55:41.250777] 16
[2025-04-13 13:55:41.250777] 0
[2025-04-13 13:55:41.250777] 25
[2025-04-13 13:55:41.250777] 100
[2025-04-13 13:55:41.250777] 144
[2025-04-13 13:55:41.250777] 169
[2025-04-13 13:55:41.257971] 169
[2025-04-13 13:55:41.257971] 121
[2025-04-13 13:55:41.257971] 100
[2025-04-13 13:55:41.257971] 49
[2025-04-13 13:55:41.257971] 16
[2025-04-13 13:55:41.259004] 1
[2025-04-13 13:55:41.259004] 36
[2025-04-13 13:55:41.259004] 121
[2025-04-13 13:55:41.267073] 169
[2025-04-13 13:55:41.267073] 144
[2025-04-13 13:55:41.267073] 64
[2025-04-13 13:55:41.267073] 9
[2025-04-13 13:55:41.267073] 1
[2025-04-13 13:55:41.267073] 36
[2025-04-13 13:55:41.267073] 81
[2025-04-13 13:55:41.267073] 144
[2025-04-13 13:55:41.276228] 169
[2025-04-13 13:55:41.276228] 169
[2025-04-13 13:55:41.276228] 121
[2025-04-13 13:55:41.276228] 81
[2025-04-13 13:55:41.276228] 49
[2025-04-13 13:55:41.276228] 4
[2025-04-13 13:55:41.276228] 4
[2025-04-13 13:55:41.285111] 49
[2025-04-13 13:55:41.285111] 100
[2025-04-13 13:55:41.285111] 169
[2025-04-13 13:55:41.285111] 144
[2025-04-13 13:55:41.285111] 81
[2025-04-13 13:55:41.285111] 9
[2025-04-13 13:55:41.286079] 4
[2025-04-13 13:55:41.286079] 36
[2025-04-13 13:55:41.293004] 100
[2025-04-13 13:55:41.293004] 121
[2025-04-13 13:55:41.293004] 169
[2025-04-13 13:55:41.293004] 169
[2025-04-13 13:55:41.293004] 144
[2025-04-13 13:55:41.293004] 100
[2025-04-13 13:55:41.293004] 49
[2025-04-13 13:55:41.302076] 4
[2025-04-13 13:55:41.302076] 4
[2025-04-13 13:55:41.302076] 49
[2025-04-13 13:55:41.303024] 121
[2025-04-13 13:55:41.303024] 169
[2025-04-13 13:55:41.303024] 121
[2025-04-13 13:55:41.303024] 49
[2025-04-13 13:55:41.303024] 1
[2025-04-13 13:55:41.310026] 9
[2025-04-13 13:55:41.311010] 49
[2025-04-13 13:55:41.311010] 100
[2025-04-13 13:55:41.311010] 144
[2025-04-13 13:55:41.311010] 169
[2025-04-13 13:55:41.311010] 169
[2025-04-13 13:55:41.311010] 121
[2025-04-13 13:55:41.320017] 64
[2025-04-13 13:55:41.320017] 25
[2025-04-13 13:55:41.320017] 0
[2025-04-13 13:55:41.320017] 16
[2025-04-13 13:55:41.320017] 81
[2025-04-13 13:55:41.320987] 144
[2025-04-13 13:55:41.320987] 144
[2025-04-13 13:55:41.327960] 121
[2025-04-13 13:55:41.327960] 25
[2025-04-13 13:55:41.327960] 0
[2025-04-13 13:55:41.327960] 25
[2025-04-13 13:55:41.328952] 81
[2025-04-13 13:55:41.328952] 121
[2025-04-13 13:55:41.328952] 144
[2025-04-13 13:55:41.328952] 169
[2025-04-13 13:55:41.337201] 144
[2025-04-13 13:55:41.337201] 100
[2025-04-13 13:55:41.338249] 64
[2025-04-13 13:55:41.338249] 25
[2025-04-13 13:55:41.338249] 0
[2025-04-13 13:55:41.338249] 25
[2025-04-13 13:55:41.338249] 81
[2025-04-13 13:55:41.346226] 144
[2025-04-13 13:55:41.346226] 196
[2025-04-13 13:55:41.346226] 121
[2025-04-13 13:55:41.346226] 49
[2025-04-13 13:55:41.346226] 1
[2025-04-13 13:55:41.347214] 16
[2025-04-13 13:55:41.347214] 81
[2025-04-13 13:55:41.347214] 144
[2025-04-13 13:55:41.355746] 225
[2025-04-13 13:55:41.355746] 225
[2025-04-13 13:55:41.355746] 225
[2025-04-13 13:55:41.355746] 121
[2025-04-13 13:55:41.355746] 49
[2025-04-13 13:55:41.355746] 9
[2025-04-13 13:55:41.355746] 1
[2025-04-13 13:55:41.363808] 49
[2025-04-13 13:55:41.363808] 121
[2025-04-13 13:55:41.363808] 196
[2025-04-13 13:55:41.363808] 169
[2025-04-13 13:55:41.363808] 81
[2025-04-13 13:55:41.363808] 16
[2025-04-13 13:55:41.364664] 0
[2025-04-13 13:55:41.364664] 25
[2025-04-13 13:55:41.372679] 81
[2025-04-13 13:55:41.372679] 144
[2025-04-13 13:55:41.372679] 169
[2025-04-13 13:55:41.372679] 169
[2025-04-13 13:55:41.372679] 144
[2025-04-13 13:55:41.372679] 100
[2025-04-13 13:55:41.380905] 64
[2025-04-13 13:55:41.381898] 16
[2025-04-13 13:55:41.381898] 1
[2025-04-13 13:55:41.381898] 36
[2025-04-13 13:55:41.381898] 100
[2025-04-13 13:55:41.381898] 169
[2025-04-13 13:55:41.382896] 144
[2025-04-13 13:55:41.382896] 64
[2025-04-13 13:55:41.390208] 16
[2025-04-13 13:55:41.390208] 1
[2025-04-13 13:55:41.390900] 36
[2025-04-13 13:55:41.390900] 100
[2025-04-13 13:55:41.390900] 144
[2025-04-13 13:55:41.390900] 169
[2025-04-13 13:55:41.390900] 144
[2025-04-13 13:55:41.399540] 121
[2025-04-13 13:55:41.399540] 81
[2025-04-13 13:55:41.399540] 36
[2025-04-13 13:55:41.399540] 1
[2025-04-13 13:55:41.399540] 9
[2025-04-13 13:55:41.399540] 64
[2025-04-13 13:55:41.399540] 121
[2025-04-13 13:55:41.399540] 144
[2025-04-13 13:55:41.407625] 121
[2025-04-13 13:55:41.407625] 49
[2025-04-13 13:55:41.407625] 9
[2025-04-13 13:55:41.408517] 4
[2025-04-13 13:55:41.408517] 49
[2025-04-13 13:55:41.408517] 100
[2025-04-13 13:55:41.408517] 144
[2025-04-13 13:55:41.417541] 169
[2025-04-13 13:55:41.417541] 169
[2025-04-13 13:55:41.417541] 121
[2025-04-13 13:55:41.417541] 81
[2025-04-13 13:55:41.417541] 36
[2025-04-13 13:55:41.417541] 1
[2025-04-13 13:55:41.417541] 9
[2025-04-13 13:55:41.417541] 49
[2025-04-13 13:55:41.426692] 121
[2025-04-13 13:55:41.426692] 144
[2025-04-13 13:55:41.426692] 121
[2025-04-13 13:55:41.426692] 36
[2025-04-13 13:55:41.426692] 4
[2025-04-13 13:55:41.426692] 4
[2025-04-13 13:55:41.426692] 36
[2025-04-13 13:55:41.426692] 81
[2025-04-13 13:55:41.435194] 144
[2025-04-13 13:55:41.435194] 169
[2025-04-13 13:55:41.435194] 144
[2025-04-13 13:55:41.435194] 100
[2025-04-13 13:55:41.435194] 81
[2025-04-13 13:55:41.435194] 36
[2025-04-13 13:55:41.435730] 9
[2025-04-13 13:55:41.435730] 1
[2025-04-13 13:55:41.444587] 64
[2025-04-13 13:55:41.444587] 144
[2025-04-13 13:55:41.444587] 169
[2025-04-13 13:55:41.444587] 121
[2025-04-13 13:55:41.444587] 49
[2025-04-13 13:55:41.444587] 4
[2025-04-13 13:55:41.444587] 9
[2025-04-13 13:55:41.452587] 49
[2025-04-13 13:55:41.452587] 121
[2025-04-13 13:55:41.452587] 169
[2025-04-13 13:55:41.452587] 196
[2025-04-13 13:55:41.453588] 169
[2025-04-13 13:55:41.453588] 121
[2025-04-13 13:55:41.453588] 64
[2025-04-13 13:55:41.461341] 25
[2025-04-13 13:55:41.461341] 1
[2025-04-13 13:55:41.461341] 16
[2025-04-13 13:55:41.461341] 81
[2025-04-13 13:55:41.461341] 169
[2025-04-13 13:55:41.461341] 225
[2025-04-13 13:55:41.461341] 144
[2025-04-13 13:55:41.461341] 36
[2025-04-13 13:55:41.470197] 0
[2025-04-13 13:55:41.470197] 36
[2025-04-13 13:55:41.470197] 81
[2025-04-13 13:55:41.471199] 121
[2025-04-13 13:55:41.471199] 144
[2025-04-13 13:55:41.471199] 144
[2025-04-13 13:55:41.471199] 121
[2025-04-13 13:55:41.478866] 100
[2025-04-13 13:55:41.478866] 64
[2025-04-13 13:55:41.479867] 25
[2025-04-13 13:55:41.479867] 0
[2025-04-13 13:55:41.479867] 16
[2025-04-13 13:55:41.479867] 81
[2025-04-13 13:55:41.479867] 144
[2025-04-13 13:55:41.487800] 121
[2025-04-13 13:55:41.487800] 100
[2025-04-13 13:55:41.487800] 25
[2025-04-13 13:55:41.487800] 0
[2025-04-13 13:55:41.488793] 25
[2025-04-13 13:55:41.488793] 64
[2025-04-13 13:55:41.488793] 121
[2025-04-13 13:55:41.488793] 169
[2025-04-13 13:55:41.496801] 169
[2025-04-13 13:55:41.496801] 144
[2025-04-13 13:55:41.496801] 100
[2025-04-13 13:55:41.496801] 64
[2025-04-13 13:55:41.496801] 16
[2025-04-13 13:55:41.496801] 1
[2025-04-13 13:55:41.496801] 36
[2025-04-13 13:55:41.505907] 100
[2025-04-13 13:55:41.505907] 169
[2025-04-13 13:55:41.505907] 169
[2025-04-13 13:55:41.505907] 81
[2025-04-13 13:55:41.505907] 16
[2025-04-13 13:55:41.505907] 1
[2025-04-13 13:55:41.505907] 36
[2025-04-13 13:55:41.505907] 81
[2025-04-13 13:55:41.514349] 121
[2025-04-13 13:55:41.514349] 169
[2025-04-13 13:55:41.515219] 169
[2025-04-13 13:55:41.515219] 144
[2025-04-13 13:55:41.515219] 100
[2025-04-13 13:55:41.515219] 49
[2025-04-13 13:55:41.515219] 9
[2025-04-13 13:55:41.523821] 1
[2025-04-13 13:55:41.523821] 49
[2025-04-13 13:55:41.523821] 100
[2025-04-13 13:55:41.523821] 169
[2025-04-13 13:55:41.523821] 144
[2025-04-13 13:55:41.523821] 64
[2025-04-13 13:55:41.523821] 9
[2025-04-13 13:55:41.523821] 4
[2025-04-13 13:55:41.531384] 49
[2025-04-13 13:55:41.531384] 100
[2025-04-13 13:55:41.531384] 144
[2025-04-13 13:55:41.531384] 169
[2025-04-13 13:55:41.531384] 144
[2025-04-13 13:55:41.531384] 121
[2025-04-13 13:55:41.531384] 81
[2025-04-13 13:55:41.540375] 36
[2025-04-13 13:55:41.540375] 4
[2025-04-13 13:55:41.540375] 9
[2025-04-13 13:55:41.540375] 49
[2025-04-13 13:55:41.540375] 121
[2025-04-13 13:55:41.540375] 169
[2025-04-13 13:55:41.540375] 144
[2025-04-13 13:55:41.550076] 81
[2025-04-13 13:55:41.550076] 9
[2025-04-13 13:55:41.550076] 4
[2025-04-13 13:55:41.550076] 64
[2025-04-13 13:55:41.550076] 121
[2025-04-13 13:55:41.550076] 144
[2025-04-13 13:55:41.550076] 169
[2025-04-13 13:55:41.550076] 144
[2025-04-13 13:55:41.558721] 121
[2025-04-13 13:55:41.558721] 81
[2025-04-13 13:55:41.558721] 49
[2025-04-13 13:55:41.558721] 4
[2025-04-13 13:55:41.558721] 4
[2025-04-13 13:55:41.558721] 64
[2025-04-13 13:55:41.558721] 121
[2025-04-13 13:55:41.558721] 144
[2025-04-13 13:55:41.567587] 121
[2025-04-13 13:55:41.567587] 49
[2025-04-13 13:55:41.568583] 4
[2025-04-13 13:55:41.568583] 4
[2025-04-13 13:55:41.568583] 49
[2025-04-13 13:55:41.568583] 81
[2025-04-13 13:55:41.568583] 121
[2025-04-13 13:55:41.576374] 144
[2025-04-13 13:55:41.577367] 144
[2025-04-13 13:55:41.577367] 121
[2025-04-13 13:55:41.577367] 81
[2025-04-13 13:55:41.577367] 49
[2025-04-13 13:55:41.577367] 4
[2025-04-13 13:55:41.577367] 4
[2025-04-13 13:55:41.578364] 64
[2025-04-13 13:55:41.586370] 144
[2025-04-13 13:55:41.586370] 169
[2025-04-13 13:55:41.586370] 121
[2025-04-13 13:55:41.586370] 49
[2025-04-13 13:55:41.586370] 1
[2025-04-13 13:55:41.586370] 9
[2025-04-13 13:55:41.586370] 64
[2025-04-13 13:55:41.586370] 121
[2025-04-13 13:55:41.594644] 144
[2025-04-13 13:55:41.594644] 169
[2025-04-13 13:55:41.594644] 144
[2025-04-13 13:55:41.594644] 100
[2025-04-13 13:55:41.594644] 64
[2025-04-13 13:55:41.594644] 36
[2025-04-13 13:55:41.594644] 4
[2025-04-13 13:55:41.603639] 9
[2025-04-13 13:55:41.603639] 64
[2025-04-13 13:55:41.604632] 121
[2025-04-13 13:55:41.604632] 169
[2025-04-13 13:55:41.604632] 100
[2025-04-13 13:55:41.604632] 36
[2025-04-13 13:55:41.604632] 1
[2025-04-13 13:55:41.604632] 9
[2025-04-13 13:55:41.612720] 49
[2025-04-13 13:55:41.612720] 100
[2025-04-13 13:55:41.612720] 144
[2025-04-13 13:55:41.612720] 169
[2025-04-13 13:55:41.612720] 144
[2025-04-13 13:55:41.612720] 121
[2025-04-13 13:55:41.612720] 81
[2025-04-13 13:55:41.621194] 36
[2025-04-13 13:55:41.621194] 1
[2025-04-13 13:55:41.621194] 16
[2025-04-13 13:55:41.621194] 81
[2025-04-13 13:55:41.621194] 169
[2025-04-13 13:55:41.621194] 169
[2025-04-13 13:55:41.621194] 121
[2025-04-13 13:55:41.629055] 49
[2025-04-13 13:55:41.630055] 0
[2025-04-13 13:55:41.630055] 16
[2025-04-13 13:55:41.630055] 81
[2025-04-13 13:55:41.630055] 121
[2025-04-13 13:55:41.630055] 169
[2025-04-13 13:55:41.630055] 169
[2025-04-13 13:55:41.630055] 144
[2025-04-13 13:55:41.638376] 100
[2025-04-13 13:55:41.638376] 64
[2025-04-13 13:55:41.638376] 25
[2025-04-13 13:55:41.639416] 0
[2025-04-13 13:55:41.639416] 25
[2025-04-13 13:55:41.639416] 100
[2025-04-13 13:55:41.639416] 169
[2025-04-13 13:55:41.646713] 196
[2025-04-13 13:55:41.646713] 121
[2025-04-13 13:55:41.646713] 36
[2025-04-13 13:55:41.647722] 0
[2025-04-13 13:55:41.647722] 36
[2025-04-13 13:55:41.647722] 81
[2025-04-13 13:55:41.647722] 169
[2025-04-13 13:55:41.656729] 196
[2025-04-13 13:55:41.656729] 196
[2025-04-13 13:55:41.656729] 144
[2025-04-13 13:55:41.656729] 81
[2025-04-13 13:55:41.656729] 49
[2025-04-13 13:55:41.656729] 16
[2025-04-13 13:55:41.656729] 1
[2025-04-13 13:55:41.656729] 36
[2025-04-13 13:55:41.665722] 121
[2025-04-13 13:55:41.665722] 144
[2025-04-13 13:55:41.665722] 144
[2025-04-13 13:55:41.665722] 64
[2025-04-13 13:55:41.665722] 9
[2025-04-13 13:55:41.665722] 1
[2025-04-13 13:55:41.666722] 25
[2025-04-13 13:55:41.666722] 64
[2025-04-13 13:55:41.674627] 121
[2025-04-13 13:55:41.674627] 169
[2025-04-13 13:55:41.674627] 169
[2025-04-13 13:55:41.674627] 121
[2025-04-13 13:55:41.674627] 81
[2025-04-13 13:55:41.674627] 49
[2025-04-13 13:55:41.674627] 9
[2025-04-13 13:55:41.683917] 0
[2025-04-13 13:55:41.683917] 36
[2025-04-13 13:55:41.683917] 81
[2025-04-13 13:55:41.683917] 144
[2025-04-13 13:55:41.683917] 144
[2025-04-13 13:55:41.683917] 64
[2025-04-13 13:55:41.683917] 9
[2025-04-13 13:55:41.684515] 1
[2025-04-13 13:55:41.692219] 25
[2025-04-13 13:55:41.692219] 64
[2025-04-13 13:55:41.692219] 100
[2025-04-13 13:55:41.692219] 144
[2025-04-13 13:55:41.692219] 144
[2025-04-13 13:55:41.692219] 121
[2025-04-13 13:55:41.692219] 100
[2025-04-13 13:55:41.700217] 64
[2025-04-13 13:55:41.700217] 16
[2025-04-13 13:55:41.700217] 1
[2025-04-13 13:55:41.700217] 49
[2025-04-13 13:55:41.701109] 121
[2025-04-13 13:55:41.701109] 169
[2025-04-13 13:55:41.701109] 144
[2025-04-13 13:55:41.701109] 64
[2025-04-13 13:55:41.710264] 4
[2025-04-13 13:55:41.710264] 9
[2025-04-13 13:55:41.710264] 49
[2025-04-13 13:55:41.710264] 100
[2025-04-13 13:55:41.710264] 144
[2025-04-13 13:55:41.710264] 169
[2025-04-13 13:55:41.710264] 169
[2025-04-13 13:55:41.719293] 121
[2025-04-13 13:55:41.719293] 81
[2025-04-13 13:55:41.719293] 36
[2025-04-13 13:55:41.719293] 1
[2025-04-13 13:55:41.719293] 9
[2025-04-13 13:55:41.719293] 64
[2025-04-13 13:55:41.719293] 121
[2025-04-13 13:55:41.719293] 169
[2025-04-13 13:55:41.728092] 121
[2025-04-13 13:55:41.728092] 64
[2025-04-13 13:55:41.728092] 4
[2025-04-13 13:55:41.728092] 9
[2025-04-13 13:55:41.728092] 49
[2025-04-13 13:55:41.728092] 100
[2025-04-13 13:55:41.728092] 144
[2025-04-13 13:55:41.736943] 169
[2025-04-13 13:55:41.736943] 169
[2025-04-13 13:55:41.736943] 144
[2025-04-13 13:55:41.736943] 81
[2025-04-13 13:55:41.737804] 25
[2025-04-13 13:55:41.737804] 0
[2025-04-13 13:55:41.737804] 9
[2025-04-13 13:55:41.737804] 64
[2025-04-13 13:55:41.745864] 121
[2025-04-13 13:55:41.745864] 169
[2025-04-13 13:55:41.745864] 121
[2025-04-13 13:55:41.745864] 49
[2025-04-13 13:55:41.745864] 1
[2025-04-13 13:55:41.745864] 16
[2025-04-13 13:55:41.745864] 64
[2025-04-13 13:55:41.745864] 121
[2025-04-13 13:55:41.754904] 169
[2025-04-13 13:55:41.754904] 169
[2025-04-13 13:55:41.754904] 144
[2025-04-13 13:55:41.754904] 100
[2025-04-13 13:55:41.755905] 81
[2025-04-13 13:55:41.755905] 36
[2025-04-13 13:55:41.755905] 4
[2025-04-13 13:55:41.763822] 9
[2025-04-13 13:55:41.763822] 64
[2025-04-13 13:55:41.763822] 144
[2025-04-13 13:55:41.763822] 169
[2025-04-13 13:55:41.763822] 121
[2025-04-13 13:55:41.763822] 49
[2025-04-13 13:55:41.763822] 4
[2025-04-13 13:55:41.764852] 9
[2025-04-13 13:55:41.771529] 49
[2025-04-13 13:55:41.771529] 121
[2025-04-13 13:55:41.771529] 169
[2025-04-13 13:55:41.771529] 196
[2025-04-13 13:55:41.772507] 169
[2025-04-13 13:55:41.772507] 121
[2025-04-13 13:55:41.772507] 64
[2025-04-13 13:55:41.780482] 25
[2025-04-13 13:55:41.780482] 0
[2025-04-13 13:55:41.780482] 16
[2025-04-13 13:55:41.780482] 81
[2025-04-13 13:55:41.781476] 144
[2025-04-13 13:55:41.781476] 144
[2025-04-13 13:55:41.781476] 100
[2025-04-13 13:55:41.789654] 36
[2025-04-13 13:55:41.789654] 0
[2025-04-13 13:55:41.789654] 16
[2025-04-13 13:55:41.789654] 64
[2025-04-13 13:55:41.789654] 121
[2025-04-13 13:55:41.789654] 169
[2025-04-13 13:55:41.789654] 169
[2025-04-13 13:55:41.798750] 144
[2025-04-13 13:55:41.798750] 121
[2025-04-13 13:55:41.798750] 64
[2025-04-13 13:55:41.798750] 25
[2025-04-13 13:55:41.798750] 0
[2025-04-13 13:55:41.798750] 36
[2025-04-13 13:55:41.798750] 100
[2025-04-13 13:55:41.798750] 169
[2025-04-13 13:55:41.807446] 169
[2025-04-13 13:55:41.807446] 100
[2025-04-13 13:55:41.807446] 16
[2025-04-13 13:55:41.807446] 1
[2025-04-13 13:55:41.807446] 36
[2025-04-13 13:55:41.807446] 81
[2025-04-13 13:55:41.807446] 144
[2025-04-13 13:55:41.816261] 169
[2025-04-13 13:55:41.816261] 169
[2025-04-13 13:55:41.816261] 121
[2025-04-13 13:55:41.816261] 81
[2025-04-13 13:55:41.816261] 49
[2025-04-13 13:55:41.817118] 4
[2025-04-13 13:55:41.817118] 1
[2025-04-13 13:55:41.817118] 36
[2025-04-13 13:55:41.825258] 121
[2025-04-13 13:55:41.825258] 169
[2025-04-13 13:55:41.825258] 169
[2025-04-13 13:55:41.826120] 81
[2025-04-13 13:55:41.826120] 16
[2025-04-13 13:55:41.826120] 1
[2025-04-13 13:55:41.826120] 36
[2025-04-13 13:55:41.833359] 100
[2025-04-13 13:55:41.833359] 144
[2025-04-13 13:55:41.833359] 196
[2025-04-13 13:55:41.833359] 169
[2025-04-13 13:55:41.833359] 144
[2025-04-13 13:55:41.833359] 81
[2025-04-13 13:55:41.833359] 49
[2025-04-13 13:55:41.833359] 4
[2025-04-13 13:55:41.842320] 4
[2025-04-13 13:55:41.842320] 49
[2025-04-13 13:55:41.843335] 121
[2025-04-13 13:55:41.843335] 169
[2025-04-13 13:55:41.843335] 121
[2025-04-13 13:55:41.843335] 64
[2025-04-13 13:55:41.843335] 9
[2025-04-13 13:55:41.843335] 1
[2025-04-13 13:55:41.851339] 36
[2025-04-13 13:55:41.851339] 100
[2025-04-13 13:55:41.851339] 144
[2025-04-13 13:55:41.851339] 169
[2025-04-13 13:55:41.852324] 169
[2025-04-13 13:55:41.852324] 144
[2025-04-13 13:55:41.859706] 100
[2025-04-13 13:55:41.859706] 36
[2025-04-13 13:55:41.859706] 1
[2025-04-13 13:55:41.859706] 16
[2025-04-13 13:55:41.859706] 81
[2025-04-13 13:55:41.859706] 169
[2025-04-13 13:55:41.859706] 196
[2025-04-13 13:55:41.859706] 144
[2025-04-13 13:55:41.869214] 49
[2025-04-13 13:55:41.869214] 1
[2025-04-13 13:55:41.869214] 16
[2025-04-13 13:55:41.869214] 64
[2025-04-13 13:55:41.869214] 121
[2025-04-13 13:55:41.869214] 196
[2025-04-13 13:55:41.869214] 225
[2025-04-13 13:55:41.878394] 144
[2025-04-13 13:55:41.878394] 100
[2025-04-13 13:55:41.878394] 64
[2025-04-13 13:55:41.878394] 9
[2025-04-13 13:55:41.878394] 0
[2025-04-13 13:55:41.878394] 25
[2025-04-13 13:55:41.878394] 81
[2025-04-13 13:55:41.878394] 121
[2025-04-13 13:55:41.886941] 144
[2025-04-13 13:55:41.886941] 100
[2025-04-13 13:55:41.886941] 25
[2025-04-13 13:55:41.886941] 0
[2025-04-13 13:55:41.886941] 16
[2025-04-13 13:55:41.886941] 49
[2025-04-13 13:55:41.886941] 100
[2025-04-13 13:55:41.894937] 196
[2025-04-13 13:55:41.894937] 225
[2025-04-13 13:55:41.894937] 169
[2025-04-13 13:55:41.894937] 100
[2025-04-13 13:55:41.894937] 49
[2025-04-13 13:55:41.894937] 16
[2025-04-13 13:55:41.894937] 0
[2025-04-13 13:55:41.894937] 16
[2025-04-13 13:55:41.905723] 81
[2025-04-13 13:55:41.905723] 144
[2025-04-13 13:55:41.905723] 144
[2025-04-13 13:55:41.905723] 100
[2025-04-13 13:55:41.905723] 36
[2025-04-13 13:55:41.905723] 0
[2025-04-13 13:55:41.905723] 16
[2025-04-13 13:55:41.913025] 64
[2025-04-13 13:55:41.913025] 121
[2025-04-13 13:55:41.913025] 144
[2025-04-13 13:55:41.913025] 169
[2025-04-13 13:55:41.913025] 169
[2025-04-13 13:55:41.913025] 121
[2025-04-13 13:55:41.913025] 64
[2025-04-13 13:55:41.921024] 16
[2025-04-13 13:55:41.921024] 1
[2025-04-13 13:55:41.921024] 36
[2025-04-13 13:55:41.921024] 121
[2025-04-13 13:55:41.921024] 144
[2025-04-13 13:55:41.921024] 144
[2025-04-13 13:55:41.921024] 64
[2025-04-13 13:55:41.921024] 9
[2025-04-13 13:55:41.930817] 4
[2025-04-13 13:55:41.930817] 36
[2025-04-13 13:55:41.930817] 81
[2025-04-13 13:55:41.930817] 144
[2025-04-13 13:55:41.931253] 169
[2025-04-13 13:55:41.931253] 169
[2025-04-13 13:55:41.931253] 144
[2025-04-13 13:55:41.938960] 100
[2025-04-13 13:55:41.938960] 36
[2025-04-13 13:55:41.938960] 4
[2025-04-13 13:55:41.938960] 4
[2025-04-13 13:55:41.939994] 49
[2025-04-13 13:55:41.939994] 144
[2025-04-13 13:55:41.939994] 169
[2025-04-13 13:55:41.946959] 144
[2025-04-13 13:55:41.947960] 100
[2025-04-13 13:55:41.947960] 16
[2025-04-13 13:55:41.947960] 4
[2025-04-13 13:55:41.947960] 49
[2025-04-13 13:55:41.947960] 121
[2025-04-13 13:55:41.947960] 144
[2025-04-13 13:55:41.947960] 196
[2025-04-13 13:55:41.956252] 169
[2025-04-13 13:55:41.957237] 121
[2025-04-13 13:55:41.957237] 81
[2025-04-13 13:55:41.957237] 36
[2025-04-13 13:55:41.957237] 4
[2025-04-13 13:55:41.957237] 9
[2025-04-13 13:55:41.957237] 64
[2025-04-13 13:55:41.966361] 121
[2025-04-13 13:55:41.966361] 196
[2025-04-13 13:55:41.966361] 144
[2025-04-13 13:55:41.966361] 49
[2025-04-13 13:55:41.966361] 4
[2025-04-13 13:55:41.967223] 9
[2025-04-13 13:55:41.967223] 64
[2025-04-13 13:55:41.967223] 121
[2025-04-13 13:55:41.974780] 169
[2025-04-13 13:55:41.974780] 196
[2025-04-13 13:55:41.974780] 169
[2025-04-13 13:55:41.974780] 121
[2025-04-13 13:55:41.974780] 81
[2025-04-13 13:55:41.974780] 36
[2025-04-13 13:55:41.974780] 1
[2025-04-13 13:55:41.974780] 4
[2025-04-13 13:55:41.983615] 49
[2025-04-13 13:55:41.983615] 144
[2025-04-13 13:55:41.983615] 169
[2025-04-13 13:55:41.983615] 121
[2025-04-13 13:55:41.983615] 49
[2025-04-13 13:55:41.983615] 1
[2025-04-13 13:55:41.984613] 9
[2025-04-13 13:55:41.992607] 64
[2025-04-13 13:55:41.992607] 121
[2025-04-13 13:55:41.992607] 144
[2025-04-13 13:55:41.992607] 169
[2025-04-13 13:55:41.992607] 144
[2025-04-13 13:55:41.992607] 121
[2025-04-13 13:55:41.992607] 81
[2025-04-13 13:55:42.000755] 36
[2025-04-13 13:55:42.000755] 1
[2025-04-13 13:55:42.000755] 16
[2025-04-13 13:55:42.000755] 81
[2025-04-13 13:55:42.000755] 144
[2025-04-13 13:55:42.000755] 169
[2025-04-13 13:55:42.000755] 121
[2025-04-13 13:55:42.000755] 49
[2025-04-13 13:55:42.010470] 1
[2025-04-13 13:55:42.010470] 9
[2025-04-13 13:55:42.010470] 64
[2025-04-13 13:55:42.010470] 121
[2025-04-13 13:55:42.010470] 169
[2025-04-13 13:55:42.010470] 169
[2025-04-13 13:55:42.010470] 144
[2025-04-13 13:55:42.018042] 100
[2025-04-13 13:55:42.019042] 64
[2025-04-13 13:55:42.019042] 25
[2025-04-13 13:55:42.019042] 0
[2025-04-13 13:55:42.019042] 25
[2025-04-13 13:55:42.019042] 81
[2025-04-13 13:55:42.019042] 169
[2025-04-13 13:55:42.019042] 169
[2025-04-13 13:55:42.028123] 144
[2025-04-13 13:55:42.028123] 36
[2025-04-13 13:55:42.028123] 0
[2025-04-13 13:55:42.028123] 25
[2025-04-13 13:55:42.028123] 64
[2025-04-13 13:55:42.028123] 144
[2025-04-13 13:55:42.028123] 196
[2025-04-13 13:55:42.036051] 225
[2025-04-13 13:55:42.036051] 196
[2025-04-13 13:55:42.036051] 100
[2025-04-13 13:55:42.036051] 64
[2025-04-13 13:55:42.036051] 4
[2025-04-13 13:55:42.036051] 1
[2025-04-13 13:55:42.037041] 36
[2025-04-13 13:55:42.037041] 121
[2025-04-13 13:55:42.045081] 169
[2025-04-13 13:55:42.046075] 169
[2025-04-13 13:55:42.046075] 100
[2025-04-13 13:55:42.046075] 25
[2025-04-13 13:55:42.046075] 1
[2025-04-13 13:55:42.046075] 36
[2025-04-13 13:55:42.046075] 81
[2025-04-13 13:55:42.054256] 144
[2025-04-13 13:55:42.054256] 196
[2025-04-13 13:55:42.054256] 196
[2025-04-13 13:55:42.054256] 169
[2025-04-13 13:55:42.054256] 121
[2025-04-13 13:55:42.054256] 64
[2025-04-13 13:55:42.054256] 9
[2025-04-13 13:55:42.063506] 1
[2025-04-13 13:55:42.063506] 49
[2025-04-13 13:55:42.063506] 121
[2025-04-13 13:55:42.063506] 196
[2025-04-13 13:55:42.063506] 169
[2025-04-13 13:55:42.063506] 81
[2025-04-13 13:55:42.063506] 9
[2025-04-13 13:55:42.063506] 1
[2025-04-13 13:55:42.070601] 36
[2025-04-13 13:55:42.071458] 100
[2025-04-13 13:55:42.071458] 144
[2025-04-13 13:55:42.071458] 169
[2025-04-13 13:55:42.071458] 169
[2025-04-13 13:55:42.071458] 144
[2025-04-13 13:55:42.071458] 100
[2025-04-13 13:55:42.079463] 49
[2025-04-13 13:55:42.080458] 9
[2025-04-13 13:55:42.080458] 4
[2025-04-13 13:55:42.080458] 64
[2025-04-13 13:55:42.080458] 144
[2025-04-13 13:55:42.080458] 196
[2025-04-13 13:55:42.080458] 169
[2025-04-13 13:55:42.089064] 81
[2025-04-13 13:55:42.089932] 9
[2025-04-13 13:55:42.089932] 4
[2025-04-13 13:55:42.089932] 36
[2025-04-13 13:55:42.089932] 121
[2025-04-13 13:55:42.089932] 144
[2025-04-13 13:55:42.089932] 144
[2025-04-13 13:55:42.089932] 144
[2025-04-13 13:55:42.098063] 121
[2025-04-13 13:55:42.098063] 100
[2025-04-13 13:55:42.098063] 49
[2025-04-13 13:55:42.098063] 4
[2025-04-13 13:55:42.098063] 9
[2025-04-13 13:55:42.098063] 64
[2025-04-13 13:55:42.098063] 144
[2025-04-13 13:55:42.107438] 169
[2025-04-13 13:55:42.107438] 121
[2025-04-13 13:55:42.107438] 64
[2025-04-13 13:55:42.107438] 4
[2025-04-13 13:55:42.107438] 9
[2025-04-13 13:55:42.107438] 64
[2025-04-13 13:55:42.107438] 121
[2025-04-13 13:55:42.107438] 169
[2025-04-13 13:55:42.116580] 196
[2025-04-13 13:55:42.116580] 169
[2025-04-13 13:55:42.116580] 121
[2025-04-13 13:55:42.116580] 81
[2025-04-13 13:55:42.116580] 36
[2025-04-13 13:55:42.116580] 1
[2025-04-13 13:55:42.117436] 9
[2025-04-13 13:55:42.117436] 64
[2025-04-13 13:55:42.125186] 144
[2025-04-13 13:55:42.125186] 169
[2025-04-13 13:55:42.125186] 121
[2025-04-13 13:55:42.125186] 49
[2025-04-13 13:55:42.125186] 4
[2025-04-13 13:55:42.126249] 9
[2025-04-13 13:55:42.126249] 64
[2025-04-13 13:55:42.133210] 121
[2025-04-13 13:55:42.133210] 144
[2025-04-13 13:55:42.133210] 169
[2025-04-13 13:55:42.133210] 144
[2025-04-13 13:55:42.133210] 100
[2025-04-13 13:55:42.134210] 49
[2025-04-13 13:55:42.134210] 16
[2025-04-13 13:55:42.134210] 0
[2025-04-13 13:55:42.142219] 25
[2025-04-13 13:55:42.143212] 81
[2025-04-13 13:55:42.143212] 144
[2025-04-13 13:55:42.143212] 169
[2025-04-13 13:55:42.143212] 100
[2025-04-13 13:55:42.143212] 36
[2025-04-13 13:55:42.143212] 0
[2025-04-13 13:55:42.151393] 25
[2025-04-13 13:55:42.151393] 81
[2025-04-13 13:55:42.151393] 144
[2025-04-13 13:55:42.151393] 169
[2025-04-13 13:55:42.151393] 196
[2025-04-13 13:55:42.151393] 169
[2025-04-13 13:55:42.151393] 121
[2025-04-13 13:55:42.159698] 64
[2025-04-13 13:55:42.159698] 16
[2025-04-13 13:55:42.159698] 0
[2025-04-13 13:55:42.159698] 36
[2025-04-13 13:55:42.159698] 121
[2025-04-13 13:55:42.159698] 196
[2025-04-13 13:55:42.160585] 196
[2025-04-13 13:55:42.167558] 100
[2025-04-13 13:55:42.168551] 25
[2025-04-13 13:55:42.168551] 0
[2025-04-13 13:55:42.168551] 25
[2025-04-13 13:55:42.168551] 81
[2025-04-13 13:55:42.168551] 169
[2025-04-13 13:55:42.168551] 196
[2025-04-13 13:55:42.168551] 196
[2025-04-13 13:55:42.177553] 169
[2025-04-13 13:55:42.177553] 100
[2025-04-13 13:55:42.177553] 64
[2025-04-13 13:55:42.177553] 16
[2025-04-13 13:55:42.177553] 1
[2025-04-13 13:55:42.177553] 49
[2025-04-13 13:55:42.177553] 144
[2025-04-13 13:55:42.186865] 169
[2025-04-13 13:55:42.186865] 144
[2025-04-13 13:55:42.186865] 81
[2025-04-13 13:55:42.186865] 9
[2025-04-13 13:55:42.186865] 4
[2025-04-13 13:55:42.186865] 36
[2025-04-13 13:55:42.186865] 81
[2025-04-13 13:55:42.186865] 121
[2025-04-13 13:55:42.194727] 169
[2025-04-13 13:55:42.195720] 169
[2025-04-13 13:55:42.195720] 121
[2025-04-13 13:55:42.195720] 81
[2025-04-13 13:55:42.195720] 49
[2025-04-13 13:55:42.195720] 9
[2025-04-13 13:55:42.195720] 4
[2025-04-13 13:55:42.195720] 49
[2025-04-13 13:55:42.204232] 100
[2025-04-13 13:55:42.204232] 144
[2025-04-13 13:55:42.204232] 144
[2025-04-13 13:55:42.204232] 64
[2025-04-13 13:55:42.205276] 9
[2025-04-13 13:55:42.205276] 1
[2025-04-13 13:55:42.205276] 36
[2025-04-13 13:55:42.213275] 100
[2025-04-13 13:55:42.213275] 144
[2025-04-13 13:55:42.213275] 169
[2025-04-13 13:55:42.213275] 144
[2025-04-13 13:55:42.213275] 100
[2025-04-13 13:55:42.213275] 64
[2025-04-13 13:55:42.213275] 36
[2025-04-13 13:55:42.222265] 4
[2025-04-13 13:55:42.222265] 4
[2025-04-13 13:55:42.222265] 36
[2025-04-13 13:55:42.223248] 100
[2025-04-13 13:55:42.223248] 169
[2025-04-13 13:55:42.223248] 121
[2025-04-13 13:55:42.223248] 64
[2025-04-13 13:55:42.223248] 9
[2025-04-13 13:55:42.230637] 4
[2025-04-13 13:55:42.230637] 36
[2025-04-13 13:55:42.230637] 100
[2025-04-13 13:55:42.230637] 144
[2025-04-13 13:55:42.231687] 169
[2025-04-13 13:55:42.231687] 169
[2025-04-13 13:55:42.231687] 121
[2025-04-13 13:55:42.239872] 81
[2025-04-13 13:55:42.239872] 49
[2025-04-13 13:55:42.239872] 4
[2025-04-13 13:55:42.239872] 9
[2025-04-13 13:55:42.240726] 64
[2025-04-13 13:55:42.240726] 144
[2025-04-13 13:55:42.240726] 169
[2025-04-13 13:55:42.240726] 144
[2025-04-13 13:55:42.248734] 64
[2025-04-13 13:55:42.248734] 1
[2025-04-13 13:55:42.248734] 9
[2025-04-13 13:55:42.248734] 64
[2025-04-13 13:55:42.248734] 100
[2025-04-13 13:55:42.248734] 144
[2025-04-13 13:55:42.248734] 169
[2025-04-13 13:55:42.257960] 169
[2025-04-13 13:55:42.257960] 121
[2025-04-13 13:55:42.257960] 64
[2025-04-13 13:55:42.257960] 25
[2025-04-13 13:55:42.257960] 0
[2025-04-13 13:55:42.257960] 16
[2025-04-13 13:55:42.257960] 64
[2025-04-13 13:55:42.257960] 121
[2025-04-13 13:55:42.266297] 144
[2025-04-13 13:55:42.266297] 121
[2025-04-13 13:55:42.266297] 36
[2025-04-13 13:55:42.266297] 1
[2025-04-13 13:55:42.267185] 25
[2025-04-13 13:55:42.267185] 81
[2025-04-13 13:55:42.267185] 121
[2025-04-13 13:55:42.276054] 169
[2025-04-13 13:55:42.276054] 169
[2025-04-13 13:55:42.276054] 144
[2025-04-13 13:55:42.276054] 100
[2025-04-13 13:55:42.276054] 64
[2025-04-13 13:55:42.276054] 16
[2025-04-13 13:55:42.276054] 0
[2025-04-13 13:55:42.276054] 25
[2025-04-13 13:55:42.283981] 100
[2025-04-13 13:55:42.283981] 169
[2025-04-13 13:55:42.283981] 169
[2025-04-13 13:55:42.283981] 100
[2025-04-13 13:55:42.283981] 25
[2025-04-13 13:55:42.283981] 0
[2025-04-13 13:55:42.284864] 36
[2025-04-13 13:55:42.291882] 100
[2025-04-13 13:55:42.291882] 169
[2025-04-13 13:55:42.291882] 225
[2025-04-13 13:55:42.291882] 196
[2025-04-13 13:55:42.291882] 169
[2025-04-13 13:55:42.291882] 100
[2025-04-13 13:55:42.291882] 49
[2025-04-13 13:55:42.301247] 4
[2025-04-13 13:55:42.301247] 4
[2025-04-13 13:55:42.301247] 49
[2025-04-13 13:55:42.301247] 121
[2025-04-13 13:55:42.301247] 196
[2025-04-13 13:55:42.301247] 169
[2025-04-13 13:55:42.301247] 81
[2025-04-13 13:55:42.309572] 16
[2025-04-13 13:55:42.309572] 1
[2025-04-13 13:55:42.309572] 36
[2025-04-13 13:55:42.309572] 100
[2025-04-13 13:55:42.310573] 121
[2025-04-13 13:55:42.310573] 169
[2025-04-13 13:55:42.310573] 169
[2025-04-13 13:55:42.318592] 144
[2025-04-13 13:55:42.318592] 100
[2025-04-13 13:55:42.318592] 49
[2025-04-13 13:55:42.318592] 9
[2025-04-13 13:55:42.319577] 1
[2025-04-13 13:55:42.319577] 49
[2025-04-13 13:55:42.319577] 121
[2025-04-13 13:55:42.319577] 196
[2025-04-13 13:55:42.326504] 144
[2025-04-13 13:55:42.327535] 64
[2025-04-13 13:55:42.327535] 9
[2025-04-13 13:55:42.327535] 4
[2025-04-13 13:55:42.327535] 64
[2025-04-13 13:55:42.327535] 100
[2025-04-13 13:55:42.327535] 144
[2025-04-13 13:55:42.327535] 196
[2025-04-13 13:55:42.336217] 169
[2025-04-13 13:55:42.336217] 169
[2025-04-13 13:55:42.336217] 121
[2025-04-13 13:55:42.337235] 36
[2025-04-13 13:55:42.337235] 0
[2025-04-13 13:55:42.337235] 16
[2025-04-13 13:55:42.337235] 81
[2025-04-13 13:55:42.345209] 144
[2025-04-13 13:55:42.345209] 169
[2025-04-13 13:55:42.345209] 121
[2025-04-13 13:55:42.345209] 49
[2025-04-13 13:55:42.345209] 1
[2025-04-13 13:55:42.345209] 16
[2025-04-13 13:55:42.345209] 64
[2025-04-13 13:55:42.352981] 121
[2025-04-13 13:55:42.352981] 144
[2025-04-13 13:55:42.353839] 144
[2025-04-13 13:55:42.353839] 144
[2025-04-13 13:55:42.353839] 100
[2025-04-13 13:55:42.353839] 81
[2025-04-13 13:55:42.353839] 25
[2025-04-13 13:55:42.353839] 0
[2025-04-13 13:55:42.362874] 16
[2025-04-13 13:55:42.362874] 81
[2025-04-13 13:55:42.362874] 144
[2025-04-13 13:55:42.362874] 144
[2025-04-13 13:55:42.362874] 100
[2025-04-13 13:55:42.362874] 36
[2025-04-13 13:55:42.362874] 0
[2025-04-13 13:55:42.371233] 16
[2025-04-13 13:55:42.371233] 64
[2025-04-13 13:55:42.371233] 100
[2025-04-13 13:55:42.371233] 169
[2025-04-13 13:55:42.372090] 196
[2025-04-13 13:55:42.372090] 144
[2025-04-13 13:55:42.372090] 121
[2025-04-13 13:55:42.379737] 64
[2025-04-13 13:55:42.379737] 25
[2025-04-13 13:55:42.379737] 0
[2025-04-13 13:55:42.379737] 25
[2025-04-13 13:55:42.379737] 100
[2025-04-13 13:55:42.379737] 196
[2025-04-13 13:55:42.379737] 196
[2025-04-13 13:55:42.387887] 100
[2025-04-13 13:55:42.387887] 25
[2025-04-13 13:55:42.387887] 0
[2025-04-13 13:55:42.387887] 25
[2025-04-13 13:55:42.387887] 81
[2025-04-13 13:55:42.387887] 144
[2025-04-13 13:55:42.388775] 196
[2025-04-13 13:55:42.388775] 225
[2025-04-13 13:55:42.397398] 169
[2025-04-13 13:55:42.397398] 100
[2025-04-13 13:55:42.397754] 64
[2025-04-13 13:55:42.397754] 9
[2025-04-13 13:55:42.397754] 1
[2025-04-13 13:55:42.397754] 49
[2025-04-13 13:55:42.397754] 121
[2025-04-13 13:55:42.406660] 196
[2025-04-13 13:55:42.406660] 169
[2025-04-13 13:55:42.406660] 81
[2025-04-13 13:55:42.406660] 16
[2025-04-13 13:55:42.407724] 1
[2025-04-13 13:55:42.407724] 25
[2025-04-13 13:55:42.407724] 81
[2025-04-13 13:55:42.407724] 144
[2025-04-13 13:55:42.414865] 169
[2025-04-13 13:55:42.414865] 169
[2025-04-13 13:55:42.414865] 144
[2025-04-13 13:55:42.415848] 121
[2025-04-13 13:55:42.415848] 64
[2025-04-13 13:55:42.415848] 16
[2025-04-13 13:55:42.415848] 4
[2025-04-13 13:55:42.423846] 49
[2025-04-13 13:55:42.423846] 121
[2025-04-13 13:55:42.423846] 169
[2025-04-13 13:55:42.423846] 144
[2025-04-13 13:55:42.423846] 81
[2025-04-13 13:55:42.423846] 16
[2025-04-13 13:55:42.423846] 1
[2025-04-13 13:55:42.423846] 49
[2025-04-13 13:55:42.431632] 100
[2025-04-13 13:55:42.431632] 144
[2025-04-13 13:55:42.431632] 196
[2025-04-13 13:55:42.431632] 196
[2025-04-13 13:55:42.431632] 169
[2025-04-13 13:55:42.431632] 100
[2025-04-13 13:55:42.440578] 36
[2025-04-13 13:55:42.440578] 0
[2025-04-13 13:55:42.440578] 16
[2025-04-13 13:55:42.440578] 81
[2025-04-13 13:55:42.440578] 169
[2025-04-13 13:55:42.440578] 196
[2025-04-13 13:55:42.440578] 121
[2025-04-13 13:55:42.440578] 64
[2025-04-13 13:55:42.449562] 1
[2025-04-13 13:55:42.449562] 16
[2025-04-13 13:55:42.449562] 81
[2025-04-13 13:55:42.449562] 144
[2025-04-13 13:55:42.449562] 169
[2025-04-13 13:55:42.449562] 196
[2025-04-13 13:55:42.449562] 169
[2025-04-13 13:55:42.458419] 121
[2025-04-13 13:55:42.458419] 64
[2025-04-13 13:55:42.458419] 16
[2025-04-13 13:55:42.458419] 0
[2025-04-13 13:55:42.458419] 25
[2025-04-13 13:55:42.458419] 81
[2025-04-13 13:55:42.458419] 169
[2025-04-13 13:55:42.466608] 169
[2025-04-13 13:55:42.467604] 144
[2025-04-13 13:55:42.467604] 36
[2025-04-13 13:55:42.467604] 1
[2025-04-13 13:55:42.467604] 25
[2025-04-13 13:55:42.467604] 100
[2025-04-13 13:55:42.467604] 144
[2025-04-13 13:55:42.467604] 196
[2025-04-13 13:55:42.476065] 196
[2025-04-13 13:55:42.476065] 169
[2025-04-13 13:55:42.476065] 121
[2025-04-13 13:55:42.476065] 64
[2025-04-13 13:55:42.476065] 16
[2025-04-13 13:55:42.476065] 1
[2025-04-13 13:55:42.476065] 36
[2025-04-13 13:55:42.484208] 100
[2025-04-13 13:55:42.484208] 169
[2025-04-13 13:55:42.484208] 144
[2025-04-13 13:55:42.484208] 81
[2025-04-13 13:55:42.484208] 16
[2025-04-13 13:55:42.484208] 0
[2025-04-13 13:55:42.484208] 25
[2025-04-13 13:55:42.492868] 100
[2025-04-13 13:55:42.492868] 144
[2025-04-13 13:55:42.492868] 196
[2025-04-13 13:55:42.492868] 196
[2025-04-13 13:55:42.492868] 144
[2025-04-13 13:55:42.492868] 100
[2025-04-13 13:55:42.492868] 49
[2025-04-13 13:55:42.500875] 9
[2025-04-13 13:55:42.500875] 4
[2025-04-13 13:55:42.500875] 49
[2025-04-13 13:55:42.500875] 121
[2025-04-13 13:55:42.501878] 196
[2025-04-13 13:55:42.501878] 169
[2025-04-13 13:55:42.501878] 100
[2025-04-13 13:55:42.501878] 25
[2025-04-13 13:55:42.509880] 0
[2025-04-13 13:55:42.510898] 36
[2025-04-13 13:55:42.510898] 81
[2025-04-13 13:55:42.510898] 144
[2025-04-13 13:55:42.510898] 196
[2025-04-13 13:55:42.510898] 196
[2025-04-13 13:55:42.510898] 144
[2025-04-13 13:55:42.518561] 100
[2025-04-13 13:55:42.518561] 49
[2025-04-13 13:55:42.518561] 9
[2025-04-13 13:55:42.518561] 1
[2025-04-13 13:55:42.518561] 49
[2025-04-13 13:55:42.519564] 121
[2025-04-13 13:55:42.519564] 169
[2025-04-13 13:55:42.527568] 144
[2025-04-13 13:55:42.527568] 64
[2025-04-13 13:55:42.528560] 9
[2025-04-13 13:55:42.528560] 4
[2025-04-13 13:55:42.528560] 49
[2025-04-13 13:55:42.528560] 100
[2025-04-13 13:55:42.528560] 169
[2025-04-13 13:55:42.528560] 196
[2025-04-13 13:55:42.536285] 169
[2025-04-13 13:55:42.536285] 144
[2025-04-13 13:55:42.536285] 81
[2025-04-13 13:55:42.536285] 49
[2025-04-13 13:55:42.536285] 4
[2025-04-13 13:55:42.536285] 16
[2025-04-13 13:55:42.537281] 81
[2025-04-13 13:55:42.537281] 169
[2025-04-13 13:55:42.546262] 196
[2025-04-13 13:55:42.546262] 121
[2025-04-13 13:55:42.546262] 49
[2025-04-13 13:55:42.546262] 1
[2025-04-13 13:55:42.546262] 16
[2025-04-13 13:55:42.546262] 64
[2025-04-13 13:55:42.546262] 121
[2025-04-13 13:55:42.554597] 169
[2025-04-13 13:55:42.554597] 196
[2025-04-13 13:55:42.554597] 144
[2025-04-13 13:55:42.554597] 100
[2025-04-13 13:55:42.554597] 81
[2025-04-13 13:55:42.554597] 36
[2025-04-13 13:55:42.554597] 0
[2025-04-13 13:55:42.562724] 25
[2025-04-13 13:55:42.562724] 100
[2025-04-13 13:55:42.562724] 169
[2025-04-13 13:55:42.562724] 196
[2025-04-13 13:55:42.562724] 121
[2025-04-13 13:55:42.562724] 36
[2025-04-13 13:55:42.562724] 0
[2025-04-13 13:55:42.562724] 25
[2025-04-13 13:55:42.571314] 81
[2025-04-13 13:55:42.571314] 121
[2025-04-13 13:55:42.571314] 144
[2025-04-13 13:55:42.571314] 169
[2025-04-13 13:55:42.571314] 144
[2025-04-13 13:55:42.571760] 100
[2025-04-13 13:55:42.579408] 64
[2025-04-13 13:55:42.579408] 16
[2025-04-13 13:55:42.579408] 0
[2025-04-13 13:55:42.579408] 25
[2025-04-13 13:55:42.579408] 100
[2025-04-13 13:55:42.580401] 169
[2025-04-13 13:55:42.580401] 169
[2025-04-13 13:55:42.580401] 100
[2025-04-13 13:55:42.588408] 16
[2025-04-13 13:55:42.588408] 0
[2025-04-13 13:55:42.588408] 36
[2025-04-13 13:55:42.588408] 81
[2025-04-13 13:55:42.589400] 144
[2025-04-13 13:55:42.589400] 196
[2025-04-13 13:55:42.589400] 225
[2025-04-13 13:55:42.597417] 144
[2025-04-13 13:55:42.597417] 100
[2025-04-13 13:55:42.597417] 49
[2025-04-13 13:55:42.597417] 9
[2025-04-13 13:55:42.597417] 1
[2025-04-13 13:55:42.597417] 49
[2025-04-13 13:55:42.597417] 121
[2025-04-13 13:55:42.597417] 196
[2025-04-13 13:55:42.606661] 169
[2025-04-13 13:55:42.606661] 100
[2025-04-13 13:55:42.606661] 25
[2025-04-13 13:55:42.606661] 0
[2025-04-13 13:55:42.606661] 36
[2025-04-13 13:55:42.607728] 81
[2025-04-13 13:55:42.607728] 144
[2025-04-13 13:55:42.614811] 196
[2025-04-13 13:55:42.614811] 225
[2025-04-13 13:55:42.615670] 169
[2025-04-13 13:55:42.615670] 100
[2025-04-13 13:55:42.615670] 36
[2025-04-13 13:55:42.615670] 1
[2025-04-13 13:55:42.615670] 9
[2025-04-13 13:55:42.615670] 64
[2025-04-13 13:55:42.624745] 121
[2025-04-13 13:55:42.624745] 169
[2025-04-13 13:55:42.624745] 144
[2025-04-13 13:55:42.624745] 64
[2025-04-13 13:55:42.624745] 4
[2025-04-13 13:55:42.624745] 4
[2025-04-13 13:55:42.624745] 49
[2025-04-13 13:55:42.632959] 100
[2025-04-13 13:55:42.632959] 144
[2025-04-13 13:55:42.632959] 169
[2025-04-13 13:55:42.632959] 169
[2025-04-13 13:55:42.632959] 144
[2025-04-13 13:55:42.632959] 100
[2025-04-13 13:55:42.632959] 36
[2025-04-13 13:55:42.642109] 1
[2025-04-13 13:55:42.642109] 9
[2025-04-13 13:55:42.642109] 64
[2025-04-13 13:55:42.642109] 144
[2025-04-13 13:55:42.642967] 196
[2025-04-13 13:55:42.642967] 144
[2025-04-13 13:55:42.642967] 49
[2025-04-13 13:55:42.642967] 4
[2025-04-13 13:55:42.650714] 4
[2025-04-13 13:55:42.650714] 49
[2025-04-13 13:55:42.650714] 100
[2025-04-13 13:55:42.650714] 169
[2025-04-13 13:55:42.650714] 196
[2025-04-13 13:55:42.650714] 196
[2025-04-13 13:55:42.650714] 121
[2025-04-13 13:55:42.658863] 64
[2025-04-13 13:55:42.658863] 25
[2025-04-13 13:55:42.658863] 0
[2025-04-13 13:55:42.658863] 16
[2025-04-13 13:55:42.658863] 81
[2025-04-13 13:55:42.659752] 169
[2025-04-13 13:55:42.659752] 169
[2025-04-13 13:55:42.668518] 121
[2025-04-13 13:55:42.668518] 49
[2025-04-13 13:55:42.668875] 1
[2025-04-13 13:55:42.668875] 16
[2025-04-13 13:55:42.668875] 64
[2025-04-13 13:55:42.668875] 121
[2025-04-13 13:55:42.668875] 196
[2025-04-13 13:55:42.668875] 196
[2025-04-13 13:55:42.676173] 144
[2025-04-13 13:55:42.676173] 100
[2025-04-13 13:55:42.677181] 81
[2025-04-13 13:55:42.677181] 16
[2025-04-13 13:55:42.677181] 0
[2025-04-13 13:55:42.677181] 25
[2025-04-13 13:55:42.677181] 100
[2025-04-13 13:55:42.685283] 169
[2025-04-13 13:55:42.685283] 169
[2025-04-13 13:55:42.685283] 100
[2025-04-13 13:55:42.685283] 25
[2025-04-13 13:55:42.685283] 0
[2025-04-13 13:55:42.685283] 25
[2025-04-13 13:55:42.686298] 64
[2025-04-13 13:55:42.686298] 144
[2025-04-13 13:55:42.694814] 196
[2025-04-13 13:55:42.694814] 225
[2025-04-13 13:55:42.694814] 169
[2025-04-13 13:55:42.694814] 121
[2025-04-13 13:55:42.694814] 81
[2025-04-13 13:55:42.694814] 16
[2025-04-13 13:55:42.694814] 0
[2025-04-13 13:55:42.702817] 49
[2025-04-13 13:55:42.702817] 121
[2025-04-13 13:55:42.702817] 196
[2025-04-13 13:55:42.702817] 169
[2025-04-13 13:55:42.702817] 100
[2025-04-13 13:55:42.702817] 25
[2025-04-13 13:55:42.702817] 0
[2025-04-13 13:55:42.711343] 36
[2025-04-13 13:55:42.711343] 81
[2025-04-13 13:55:42.711343] 169
[2025-04-13 13:55:42.711343] 196
[2025-04-13 13:55:42.711343] 225
[2025-04-13 13:55:42.711816] 144
[2025-04-13 13:55:42.711816] 100
[2025-04-13 13:55:42.719078] 49
[2025-04-13 13:55:42.720109] 9
[2025-04-13 13:55:42.720109] 1
[2025-04-13 13:55:42.720109] 49
[2025-04-13 13:55:42.720109] 121
[2025-04-13 13:55:42.720109] 196
[2025-04-13 13:55:42.720109] 169
[2025-04-13 13:55:42.720109] 81
[2025-04-13 13:55:42.729115] 9
[2025-04-13 13:55:42.729115] 4
[2025-04-13 13:55:42.729115] 36
[2025-04-13 13:55:42.729115] 81
[2025-04-13 13:55:42.729115] 121
[2025-04-13 13:55:42.729115] 144
[2025-04-13 13:55:42.729115] 144
[2025-04-13 13:55:42.738517] 121
[2025-04-13 13:55:42.738517] 100
[2025-04-13 13:55:42.738517] 36
[2025-04-13 13:55:42.738517] 4
[2025-04-13 13:55:42.738517] 4
[2025-04-13 13:55:42.738517] 49
[2025-04-13 13:55:42.739111] 121
[2025-04-13 13:55:42.739111] 169
[2025-04-13 13:55:42.748004] 100
[2025-04-13 13:55:42.748004] 36
[2025-04-13 13:55:42.748004] 4
[2025-04-13 13:55:42.748004] 9
[2025-04-13 13:55:42.748004] 49
[2025-04-13 13:55:42.748004] 81
[2025-04-13 13:55:42.748004] 144
[2025-04-13 13:55:42.749026] 196
[2025-04-13 13:55:42.756156] 196
[2025-04-13 13:55:42.756156] 121
[2025-04-13 13:55:42.756156] 81
[2025-04-13 13:55:42.756156] 36
[2025-04-13 13:55:42.756156] 1
[2025-04-13 13:55:42.756156] 9
[2025-04-13 13:55:42.757011] 81
[2025-04-13 13:55:42.765912] 144
[2025-04-13 13:55:42.765912] 169
[2025-04-13 13:55:42.765912] 144
[2025-04-13 13:55:42.765912] 64
[2025-04-13 13:55:42.765912] 4
[2025-04-13 13:55:42.765912] 9
[2025-04-13 13:55:42.765912] 64
[2025-04-13 13:55:42.765912] 121
[2025-04-13 13:55:42.774284] 169
[2025-04-13 13:55:42.774284] 196
[2025-04-13 13:55:42.774284] 169
[2025-04-13 13:55:42.774284] 144
[2025-04-13 13:55:42.774284] 100
[2025-04-13 13:55:42.774284] 36
[2025-04-13 13:55:42.774284] 1
[2025-04-13 13:55:42.782239] 16
[2025-04-13 13:55:42.782239] 100
[2025-04-13 13:55:42.783256] 196
[2025-04-13 13:55:42.783256] 196
[2025-04-13 13:55:42.783256] 144
[2025-04-13 13:55:42.783256] 49
[2025-04-13 13:55:42.783256] 1
[2025-04-13 13:55:42.791073] 25
[2025-04-13 13:55:42.791073] 100
[2025-04-13 13:55:42.791073] 144
[2025-04-13 13:55:42.791073] 169
[2025-04-13 13:55:42.791073] 169
[2025-04-13 13:55:42.791073] 144
[2025-04-13 13:55:42.791073] 100
[2025-04-13 13:55:42.799081] 49
[2025-04-13 13:55:42.799081] 16
[2025-04-13 13:55:42.799081] 0
[2025-04-13 13:55:42.799081] 25
[2025-04-13 13:55:42.799081] 100
[2025-04-13 13:55:42.799081] 144
[2025-04-13 13:55:42.799081] 169
[2025-04-13 13:55:42.807750] 100
[2025-04-13 13:55:42.807750] 25
[2025-04-13 13:55:42.807750] 0
[2025-04-13 13:55:42.807750] 49
[2025-04-13 13:55:42.807750] 121
[2025-04-13 13:55:42.807750] 144
[2025-04-13 13:55:42.807750] 169
[2025-04-13 13:55:42.817306] 169
[2025-04-13 13:55:42.817306] 144
[2025-04-13 13:55:42.817306] 100
[2025-04-13 13:55:42.817306] 49
[2025-04-13 13:55:42.817306] 9
[2025-04-13 13:55:42.817306] 1
[2025-04-13 13:55:42.817306] 49
[2025-04-13 13:55:42.817306] 121
[2025-04-13 13:55:42.825453] 169
[2025-04-13 13:55:42.825453] 144
[2025-04-13 13:55:42.825453] 100
[2025-04-13 13:55:42.825453] 16
[2025-04-13 13:55:42.825453] 0
[2025-04-13 13:55:42.825453] 25
[2025-04-13 13:55:42.825453] 100
[2025-04-13 13:55:42.834917] 144
[2025-04-13 13:55:42.834917] 169
[2025-04-13 13:55:42.834917] 169
[2025-04-13 13:55:42.834917] 121
[2025-04-13 13:55:42.835463] 81
[2025-04-13 13:55:42.835463] 49
[2025-04-13 13:55:42.835463] 9
[2025-04-13 13:55:42.835463] 9
[2025-04-13 13:55:42.843392] 64
[2025-04-13 13:55:42.843392] 144
[2025-04-13 13:55:42.843656] 169
[2025-04-13 13:55:42.843656] 121
[2025-04-13 13:55:42.843656] 49
[2025-04-13 13:55:42.843656] 4
[2025-04-13 13:55:42.843656] 9
[2025-04-13 13:55:42.843656] 64
[2025-04-13 13:55:42.851686] 121
[2025-04-13 13:55:42.851686] 169
[2025-04-13 13:55:42.851686] 169
[2025-04-13 13:55:42.851686] 169
[2025-04-13 13:55:42.851686] 121
[2025-04-13 13:55:42.851686] 100
[2025-04-13 13:55:42.860233] 36
[2025-04-13 13:55:42.860233] 0
[2025-04-13 13:55:42.860233] 16
[2025-04-13 13:55:42.860233] 81
[2025-04-13 13:55:42.860233] 169
[2025-04-13 13:55:42.860233] 169
[2025-04-13 13:55:42.860233] 100
[2025-04-13 13:55:42.860233] 36
[2025-04-13 13:55:42.869379] 1
[2025-04-13 13:55:42.869379] 9
[2025-04-13 13:55:42.869379] 49
[2025-04-13 13:55:42.869379] 121
[2025-04-13 13:55:42.869379] 169
[2025-04-13 13:55:42.869379] 196
[2025-04-13 13:55:42.869379] 169
[2025-04-13 13:55:42.877130] 100
[2025-04-13 13:55:42.878248] 49
[2025-04-13 13:55:42.878248] 25
[2025-04-13 13:55:42.878248] 0
[2025-04-13 13:55:42.878248] 25
[2025-04-13 13:55:42.878248] 81
[2025-04-13 13:55:42.878248] 144
[2025-04-13 13:55:42.878248] 196
[2025-04-13 13:55:42.887460] 121
[2025-04-13 13:55:42.887460] 36
[2025-04-13 13:55:42.887460] 0
[2025-04-13 13:55:42.887460] 36
[2025-04-13 13:55:42.888464] 100
[2025-04-13 13:55:42.888464] 169
[2025-04-13 13:55:42.888464] 196
[2025-04-13 13:55:42.895785] 196
[2025-04-13 13:55:42.895785] 121
[2025-04-13 13:55:42.895785] 81
[2025-04-13 13:55:42.895785] 49
[2025-04-13 13:55:42.895785] 9
[2025-04-13 13:55:42.895785] 1
[2025-04-13 13:55:42.895785] 25
[2025-04-13 13:55:42.895785] 100
[2025-04-13 13:55:42.905193] 169
[2025-04-13 13:55:42.905193] 169
[2025-04-13 13:55:42.905193] 100
[2025-04-13 13:55:42.905193] 25
[2025-04-13 13:55:42.905193] 0
[2025-04-13 13:55:42.905193] 49
[2025-04-13 13:55:42.905193] 100
[2025-04-13 13:55:42.913342] 144
[2025-04-13 13:55:42.913342] 196
[2025-04-13 13:55:42.913342] 196
[2025-04-13 13:55:42.913342] 144
[2025-04-13 13:55:42.913342] 81
[2025-04-13 13:55:42.913342] 64
[2025-04-13 13:55:42.913342] 9
[2025-04-13 13:55:42.922347] 1
[2025-04-13 13:55:42.922347] 49
[2025-04-13 13:55:42.922347] 144
[2025-04-13 13:55:42.923199] 169
[2025-04-13 13:55:42.923199] 169
[2025-04-13 13:55:42.923199] 81
[2025-04-13 13:55:42.923199] 16
[2025-04-13 13:55:42.923199] 1
[2025-04-13 13:55:42.930484] 36
[2025-04-13 13:55:42.930484] 100
[2025-04-13 13:55:42.930484] 144
[2025-04-13 13:55:42.930484] 196
[2025-04-13 13:55:42.930484] 196
[2025-04-13 13:55:42.930484] 144
[2025-04-13 13:55:42.939517] 100
[2025-04-13 13:55:42.939517] 49
[2025-04-13 13:55:42.939517] 4
[2025-04-13 13:55:42.939517] 1
[2025-04-13 13:55:42.939517] 64
[2025-04-13 13:55:42.939517] 144
[2025-04-13 13:55:42.939517] 196
[2025-04-13 13:55:42.939517] 144
[2025-04-13 13:55:42.947797] 81
[2025-04-13 13:55:42.947797] 9
[2025-04-13 13:55:42.947797] 4
[2025-04-13 13:55:42.947797] 49
[2025-04-13 13:55:42.947797] 100
[2025-04-13 13:55:42.947797] 169
[2025-04-13 13:55:42.947797] 196
[2025-04-13 13:55:42.947797] 196
[2025-04-13 13:55:42.956921] 121
[2025-04-13 13:55:42.956921] 81
[2025-04-13 13:55:42.956921] 25
[2025-04-13 13:55:42.957776] 0
[2025-04-13 13:55:42.957776] 16
[2025-04-13 13:55:42.957776] 81
[2025-04-13 13:55:42.957776] 144
[2025-04-13 13:55:42.965778] 169
[2025-04-13 13:55:42.965778] 121
[2025-04-13 13:55:42.965778] 49
[2025-04-13 13:55:42.965778] 1
[2025-04-13 13:55:42.965778] 16
[2025-04-13 13:55:42.966779] 49
[2025-04-13 13:55:42.966779] 100
[2025-04-13 13:55:42.966779] 144
[2025-04-13 13:55:42.974979] 169
[2025-04-13 13:55:42.974979] 169
[2025-04-13 13:55:42.974979] 121
[2025-04-13 13:55:42.974979] 81
[2025-04-13 13:55:42.974979] 36
[2025-04-13 13:55:42.974979] 1
[2025-04-13 13:55:42.974979] 9
[2025-04-13 13:55:42.983834] 64
[2025-04-13 13:55:42.983834] 121
[2025-04-13 13:55:42.983834] 169
[2025-04-13 13:55:42.983834] 121
[2025-04-13 13:55:42.983834] 49
[2025-04-13 13:55:42.984833] 0
[2025-04-13 13:55:42.984833] 16
[2025-04-13 13:55:42.984833] 81
[2025-04-13 13:55:42.991949] 121
[2025-04-13 13:55:42.991949] 144
[2025-04-13 13:55:42.991949] 169
[2025-04-13 13:55:42.991949] 144
[2025-04-13 13:55:42.991949] 100
[2025-04-13 13:55:42.991949] 49
[2025-04-13 13:55:42.991949] 16
[2025-04-13 13:55:43.001325] 0
[2025-04-13 13:55:43.001325] 16
[2025-04-13 13:55:43.001325] 81
[2025-04-13 13:55:43.001325] 144
[2025-04-13 13:55:43.001325] 144
[2025-04-13 13:55:43.001325] 121
[2025-04-13 13:55:43.001325] 25
[2025-04-13 13:55:43.009343] 0
[2025-04-13 13:55:43.009343] 16
[2025-04-13 13:55:43.010208] 81
[2025-04-13 13:55:43.010208] 144
[2025-04-13 13:55:43.010208] 169
[2025-04-13 13:55:43.010208] 196
[2025-04-13 13:55:43.010208] 169
[2025-04-13 13:55:43.018245] 121
[2025-04-13 13:55:43.018245] 81
[2025-04-13 13:55:43.018245] 16
[2025-04-13 13:55:43.018245] 0
[2025-04-13 13:55:43.018245] 49
[2025-04-13 13:55:43.019254] 121
[2025-04-13 13:55:43.019254] 196
[2025-04-13 13:55:43.019254] 169
[2025-04-13 13:55:43.027584] 81
[2025-04-13 13:55:43.027584] 25
[2025-04-13 13:55:43.027584] 0
[2025-04-13 13:55:43.027584] 25
[2025-04-13 13:55:43.027584] 81
[2025-04-13 13:55:43.027584] 144
[2025-04-13 13:55:43.027584] 169
[2025-04-13 13:55:43.035730] 196
[2025-04-13 13:55:43.035730] 169
[2025-04-13 13:55:43.035730] 121
[2025-04-13 13:55:43.035730] 64
[2025-04-13 13:55:43.035730] 16
[2025-04-13 13:55:43.035730] 1
[2025-04-13 13:55:43.035730] 36
[2025-04-13 13:55:43.035730] 121
[2025-04-13 13:55:43.045230] 144
[2025-04-13 13:55:43.045230] 169
[2025-04-13 13:55:43.045600] 81
[2025-04-13 13:55:43.045600] 16
[2025-04-13 13:55:43.045600] 1
[2025-04-13 13:55:43.045600] 25
[2025-04-13 13:55:43.045600] 81
[2025-04-13 13:55:43.053124] 144
[2025-04-13 13:55:43.053124] 196
[2025-04-13 13:55:43.053124] 196
[2025-04-13 13:55:43.053124] 121
[2025-04-13 13:55:43.054085] 100
[2025-04-13 13:55:43.054085] 49
[2025-04-13 13:55:43.054085] 4
[2025-04-13 13:55:43.054085] 9
[2025-04-13 13:55:43.063097] 49
[2025-04-13 13:55:43.063097] 144
[2025-04-13 13:55:43.063097] 169
[2025-04-13 13:55:43.063097] 121
[2025-04-13 13:55:43.063097] 49
[2025-04-13 13:55:43.063097] 1
[2025-04-13 13:55:43.063097] 9
[2025-04-13 13:55:43.071394] 64
[2025-04-13 13:55:43.071394] 121
[2025-04-13 13:55:43.071394] 169
[2025-04-13 13:55:43.071394] 169
[2025-04-13 13:55:43.071394] 144
[2025-04-13 13:55:43.071394] 121
[2025-04-13 13:55:43.071394] 81
[2025-04-13 13:55:43.080235] 36
[2025-04-13 13:55:43.080235] 4
[2025-04-13 13:55:43.080235] 9
[2025-04-13 13:55:43.080235] 64
[2025-04-13 13:55:43.080235] 144
[2025-04-13 13:55:43.080235] 196
[2025-04-13 13:55:43.080235] 144
[2025-04-13 13:55:43.081231] 64
[2025-04-13 13:55:43.089202] 1
[2025-04-13 13:55:43.089202] 9
[2025-04-13 13:55:43.089202] 64
[2025-04-13 13:55:43.089202] 121
[2025-04-13 13:55:43.089202] 144
[2025-04-13 13:55:43.089202] 196
[2025-04-13 13:55:43.089202] 144
[2025-04-13 13:55:43.098486] 100
[2025-04-13 13:55:43.098486] 81
[2025-04-13 13:55:43.098486] 25
[2025-04-13 13:55:43.098486] 0
[2025-04-13 13:55:43.098486] 25
[2025-04-13 13:55:43.098486] 81
[2025-04-13 13:55:43.098486] 169
[2025-04-13 13:55:43.098486] 169
[2025-04-13 13:55:43.106486] 121
[2025-04-13 13:55:43.106486] 25
[2025-04-13 13:55:43.107342] 0
[2025-04-13 13:55:43.107342] 16
[2025-04-13 13:55:43.107342] 64
[2025-04-13 13:55:43.107342] 100
[2025-04-13 13:55:43.107342] 169
[2025-04-13 13:55:43.115571] 196
[2025-04-13 13:55:43.115571] 169
[2025-04-13 13:55:43.115571] 144
[2025-04-13 13:55:43.115571] 81
[2025-04-13 13:55:43.115571] 25
[2025-04-13 13:55:43.115571] 0
[2025-04-13 13:55:43.115571] 25
[2025-04-13 13:55:43.115571] 100
[2025-04-13 13:55:43.124812] 169
[2025-04-13 13:55:43.124812] 169
[2025-04-13 13:55:43.124812] 81
[2025-04-13 13:55:43.124812] 16
[2025-04-13 13:55:43.124812] 0
[2025-04-13 13:55:43.124812] 16
[2025-04-13 13:55:43.124812] 64
[2025-04-13 13:55:43.132961] 121
[2025-04-13 13:55:43.132961] 169
[2025-04-13 13:55:43.132961] 196
[2025-04-13 13:55:43.132961] 144
[2025-04-13 13:55:43.132961] 121
[2025-04-13 13:55:43.132961] 64
[2025-04-13 13:55:43.132961] 25
[2025-04-13 13:55:43.142462] 0
[2025-04-13 13:55:43.142462] 25
[2025-04-13 13:55:43.142462] 100
[2025-04-13 13:55:43.142821] 196
[2025-04-13 13:55:43.142821] 169
[2025-04-13 13:55:43.142821] 81
[2025-04-13 13:55:43.142821] 25
[2025-04-13 13:55:43.142821] 0
[2025-04-13 13:55:43.150099] 25
[2025-04-13 13:55:43.150099] 64
[2025-04-13 13:55:43.150099] 121
[2025-04-13 13:55:43.150099] 169
[2025-04-13 13:55:43.150099] 196
[2025-04-13 13:55:43.151130] 169
[2025-04-13 13:55:43.151130] 121
[2025-04-13 13:55:43.158893] 64
[2025-04-13 13:55:43.158893] 16
[2025-04-13 13:55:43.159921] 1
[2025-04-13 13:55:43.159921] 49
[2025-04-13 13:55:43.159921] 144
[2025-04-13 13:55:43.159921] 169
[2025-04-13 13:55:43.159921] 169
[2025-04-13 13:55:43.166890] 81
[2025-04-13 13:55:43.167889] 9
[2025-04-13 13:55:43.167889] 4
[2025-04-13 13:55:43.167889] 49
[2025-04-13 13:55:43.167889] 100
[2025-04-13 13:55:43.167889] 144
[2025-04-13 13:55:43.167889] 169
[2025-04-13 13:55:43.167889] 144
[2025-04-13 13:55:43.176889] 121
[2025-04-13 13:55:43.176889] 81
[2025-04-13 13:55:43.176889] 36
[2025-04-13 13:55:43.176889] 4
[2025-04-13 13:55:43.177889] 4
[2025-04-13 13:55:43.177889] 49
[2025-04-13 13:55:43.177889] 121
[2025-04-13 13:55:43.185889] 196
[2025-04-13 13:55:43.185889] 169
[2025-04-13 13:55:43.185889] 81
[2025-04-13 13:55:43.185889] 9
[2025-04-13 13:55:43.186891] 4
[2025-04-13 13:55:43.186891] 49
[2025-04-13 13:55:43.186891] 121
[2025-04-13 13:55:43.186891] 196
[2025-04-13 13:55:43.194894] 196
[2025-04-13 13:55:43.194894] 169
[2025-04-13 13:55:43.194894] 144
[2025-04-13 13:55:43.194894] 81
[2025-04-13 13:55:43.194894] 36
[2025-04-13 13:55:43.195894] 1
[2025-04-13 13:55:43.195894] 16
[2025-04-13 13:55:43.195894] 64
[2025-04-13 13:55:43.203889] 121
[2025-04-13 13:55:43.203889] 169
[2025-04-13 13:55:43.203889] 144
[2025-04-13 13:55:43.203889] 49
[2025-04-13 13:55:43.203889] 4
[2025-04-13 13:55:43.204936] 9
[2025-04-13 13:55:43.204936] 64
[2025-04-13 13:55:43.211892] 121
[2025-04-13 13:55:43.211892] 144
[2025-04-13 13:55:43.212928] 169
[2025-04-13 13:55:43.212928] 169
[2025-04-13 13:55:43.212928] 121
[2025-04-13 13:55:43.212928] 64
[2025-04-13 13:55:43.212928] 25
[2025-04-13 13:55:43.221228] 0
[2025-04-13 13:55:43.221228] 25
[2025-04-13 13:55:43.222087] 81
[2025-04-13 13:55:43.222087] 144
[2025-04-13 13:55:43.222087] 169
[2025-04-13 13:55:43.222087] 100
[2025-04-13 13:55:43.222087] 36
[2025-04-13 13:55:43.222087] 1
[2025-04-13 13:55:43.230183] 9
[2025-04-13 13:55:43.230183] 64
[2025-04-13 13:55:43.230183] 100
[2025-04-13 13:55:43.230183] 144
[2025-04-13 13:55:43.230183] 144
[2025-04-13 13:55:43.230183] 144
[2025-04-13 13:55:43.230183] 100
[2025-04-13 13:55:43.238667] 81
[2025-04-13 13:55:43.238667] 49
[2025-04-13 13:55:43.238667] 4
[2025-04-13 13:55:43.238667] 16
[2025-04-13 13:55:43.238667] 81
[2025-04-13 13:55:43.238667] 169
[2025-04-13 13:55:43.238667] 196
[2025-04-13 13:55:43.246523] 121
[2025-04-13 13:55:43.246523] 36
[2025-04-13 13:55:43.247524] 0
[2025-04-13 13:55:43.247524] 25
[2025-04-13 13:55:43.247524] 100
[2025-04-13 13:55:43.247524] 169
[2025-04-13 13:55:43.247524] 196
[2025-04-13 13:55:43.247524] 196
[2025-04-13 13:55:43.256651] 169
[2025-04-13 13:55:43.256651] 121
[2025-04-13 13:55:43.256651] 64
[2025-04-13 13:55:43.256651] 16
[2025-04-13 13:55:43.256651] 0
[2025-04-13 13:55:43.256651] 36
[2025-04-13 13:55:43.256651] 121
[2025-04-13 13:55:43.264776] 225
[2025-04-13 13:55:43.264776] 196
[2025-04-13 13:55:43.264776] 100
[2025-04-13 13:55:43.264776] 25
[2025-04-13 13:55:43.264776] 0
[2025-04-13 13:55:43.264776] 36
[2025-04-13 13:55:43.264776] 81
[2025-04-13 13:55:43.273784] 169
[2025-04-13 13:55:43.273784] 196
[2025-04-13 13:55:43.273784] 225
[2025-04-13 13:55:43.273784] 144
[2025-04-13 13:55:43.273784] 100
[2025-04-13 13:55:43.273784] 49
[2025-04-13 13:55:43.274777] 9
[2025-04-13 13:55:43.274777] 1
[2025-04-13 13:55:43.282788] 49
[2025-04-13 13:55:43.282788] 121
[2025-04-13 13:55:43.282788] 196
[2025-04-13 13:55:43.282788] 196
[2025-04-13 13:55:43.282788] 81
[2025-04-13 13:55:43.282788] 16
[2025-04-13 13:55:43.282788] 1
[2025-04-13 13:55:43.291078] 36
[2025-04-13 13:55:43.291078] 100
[2025-04-13 13:55:43.291078] 144
[2025-04-13 13:55:43.291078] 169
[2025-04-13 13:55:43.291078] 169
[2025-04-13 13:55:43.291078] 144
[2025-04-13 13:55:43.291078] 121
[2025-04-13 13:55:43.299220] 64
[2025-04-13 13:55:43.299220] 9
[2025-04-13 13:55:43.299220] 9
[2025-04-13 13:55:43.299220] 64
[2025-04-13 13:55:43.299220] 169
[2025-04-13 13:55:43.299220] 196
[2025-04-13 13:55:43.299220] 169
[2025-04-13 13:55:43.299220] 81
[2025-04-13 13:55:43.310266] 9
[2025-04-13 13:55:43.310266] 4
[2025-04-13 13:55:43.310266] 49
[2025-04-13 13:55:43.310266] 100
[2025-04-13 13:55:43.310266] 144
[2025-04-13 13:55:43.310266] 196
[2025-04-13 13:55:43.310266] 196
[2025-04-13 13:55:43.317365] 144
[2025-04-13 13:55:43.317365] 100
[2025-04-13 13:55:43.317365] 36
[2025-04-13 13:55:43.317365] 0
[2025-04-13 13:55:43.317365] 25
[2025-04-13 13:55:43.317365] 81
[2025-04-13 13:55:43.317365] 144
[2025-04-13 13:55:43.326348] 169
[2025-04-13 13:55:43.326348] 121
[2025-04-13 13:55:43.326348] 49
[2025-04-13 13:55:43.326348] 1
[2025-04-13 13:55:43.326348] 16
[2025-04-13 13:55:43.326348] 81
[2025-04-13 13:55:43.326348] 144
[2025-04-13 13:55:43.326348] 169
[2025-04-13 13:55:43.334355] 169
[2025-04-13 13:55:43.334355] 144
[2025-04-13 13:55:43.334355] 100
[2025-04-13 13:55:43.335364] 49
[2025-04-13 13:55:43.335364] 25
[2025-04-13 13:55:43.335364] 0
[2025-04-13 13:55:43.335364] 25
[2025-04-13 13:55:43.344385] 64
[2025-04-13 13:55:43.344385] 144
[2025-04-13 13:55:43.344385] 196
[2025-04-13 13:55:43.344385] 144
[2025-04-13 13:55:43.344385] 36
[2025-04-13 13:55:43.344385] 1
[2025-04-13 13:55:43.344385] 16
[2025-04-13 13:55:43.345378] 81
[2025-04-13 13:55:43.352452] 144
[2025-04-13 13:55:43.352452] 225
[2025-04-13 13:55:43.352452] 196
[2025-04-13 13:55:43.352452] 144
[2025-04-13 13:55:43.352452] 81
[2025-04-13 13:55:43.352452] 49
[2025-04-13 13:55:43.352452] 16
[2025-04-13 13:55:43.360472] 0
[2025-04-13 13:55:43.360472] 16
[2025-04-13 13:55:43.360472] 81
[2025-04-13 13:55:43.361459] 169
[2025-04-13 13:55:43.361459] 169
[2025-04-13 13:55:43.361459] 121
[2025-04-13 13:55:43.361459] 25
[2025-04-13 13:55:43.361459] 0
[2025-04-13 13:55:43.369630] 25
[2025-04-13 13:55:43.369630] 81
[2025-04-13 13:55:43.369630] 144
[2025-04-13 13:55:43.369630] 196
[2025-04-13 13:55:43.369630] 225
[2025-04-13 13:55:43.369630] 169
[2025-04-13 13:55:43.379018] 100
[2025-04-13 13:55:43.379018] 49
[2025-04-13 13:55:43.379018] 9
[2025-04-13 13:55:43.379018] 1
[2025-04-13 13:55:43.379018] 36
[2025-04-13 13:55:43.379018] 100
[2025-04-13 13:55:43.379018] 196
[2025-04-13 13:55:43.379018] 196
[2025-04-13 13:55:43.387025] 100
[2025-04-13 13:55:43.387025] 25
[2025-04-13 13:55:43.387025] 0
[2025-04-13 13:55:43.388082] 49
[2025-04-13 13:55:43.388082] 100
[2025-04-13 13:55:43.388082] 169
[2025-04-13 13:55:43.388082] 196
[2025-04-13 13:55:43.396028] 196
[2025-04-13 13:55:43.396028] 144
[2025-04-13 13:55:43.396028] 100
[2025-04-13 13:55:43.396028] 36
[2025-04-13 13:55:43.396028] 1
[2025-04-13 13:55:43.396028] 16
[2025-04-13 13:55:43.396028] 64
[2025-04-13 13:55:43.396028] 121
[2025-04-13 13:55:43.405306] 144
[2025-04-13 13:55:43.405306] 121
[2025-04-13 13:55:43.405306] 49
[2025-04-13 13:55:43.405306] 4
[2025-04-13 13:55:43.405306] 4
[2025-04-13 13:55:43.405306] 49
[2025-04-13 13:55:43.405306] 81
[2025-04-13 13:55:43.414418] 144
[2025-04-13 13:55:43.414418] 169
[2025-04-13 13:55:43.414418] 169
[2025-04-13 13:55:43.414418] 121
[2025-04-13 13:55:43.414418] 81
[2025-04-13 13:55:43.414418] 36
[2025-04-13 13:55:43.414418] 4
[2025-04-13 13:55:43.414418] 9
[2025-04-13 13:55:43.422761] 64
[2025-04-13 13:55:43.422761] 121
[2025-04-13 13:55:43.422761] 169
[2025-04-13 13:55:43.422761] 121
[2025-04-13 13:55:43.422761] 64
[2025-04-13 13:55:43.422761] 4
[2025-04-13 13:55:43.422761] 16
[2025-04-13 13:55:43.423801] 81
[2025-04-13 13:55:43.431396] 121
[2025-04-13 13:55:43.431396] 169
[2025-04-13 13:55:43.431396] 196
[2025-04-13 13:55:43.431396] 196
[2025-04-13 13:55:43.431396] 121
[2025-04-13 13:55:43.431396] 64
[2025-04-13 13:55:43.440471] 25
[2025-04-13 13:55:43.440471] 0
[2025-04-13 13:55:43.440471] 16
[2025-04-13 13:55:43.440471] 81
[2025-04-13 13:55:43.440471] 169
[2025-04-13 13:55:43.441362] 196
[2025-04-13 13:55:43.441362] 121
[2025-04-13 13:55:43.441362] 49
[2025-04-13 13:55:43.448510] 1
[2025-04-13 13:55:43.449520] 25
[2025-04-13 13:55:43.449520] 64
[2025-04-13 13:55:43.449520] 121
[2025-04-13 13:55:43.449520] 169
[2025-04-13 13:55:43.450583] 196
[2025-04-13 13:55:43.450583] 144
[2025-04-13 13:55:43.457040] 100
[2025-04-13 13:55:43.457897] 64
[2025-04-13 13:55:43.457897] 16
[2025-04-13 13:55:43.457897] 0
[2025-04-13 13:55:43.457897] 25
[2025-04-13 13:55:43.457897] 81
[2025-04-13 13:55:43.457897] 169
[2025-04-13 13:55:43.457897] 169
[2025-04-13 13:55:43.466895] 100
[2025-04-13 13:55:43.466895] 36
[2025-04-13 13:55:43.466895] 0
[2025-04-13 13:55:43.466895] 25
[2025-04-13 13:55:43.466895] 81
[2025-04-13 13:55:43.466895] 121
[2025-04-13 13:55:43.466895] 169
[2025-04-13 13:55:43.475405] 196
[2025-04-13 13:55:43.475405] 169
[2025-04-13 13:55:43.475405] 100
[2025-04-13 13:55:43.475405] 64
[2025-04-13 13:55:43.475405] 25
[2025-04-13 13:55:43.475405] 0
[2025-04-13 13:55:43.475405] 25
[2025-04-13 13:55:43.484527] 100
[2025-04-13 13:55:43.484527] 144
[2025-04-13 13:55:43.484527] 169
[2025-04-13 13:55:43.484527] 81
[2025-04-13 13:55:43.484527] 16
[2025-04-13 13:55:43.484527] 0
[2025-04-13 13:55:43.484527] 25
[2025-04-13 13:55:43.484527] 100
[2025-04-13 13:55:43.492875] 144
[2025-04-13 13:55:43.492875] 169
[2025-04-13 13:55:43.492875] 169
[2025-04-13 13:55:43.492875] 144
[2025-04-13 13:55:43.492875] 81
[2025-04-13 13:55:43.492875] 36
[2025-04-13 13:55:43.492875] 9
[2025-04-13 13:55:43.501225] 1
[2025-04-13 13:55:43.501225] 36
[2025-04-13 13:55:43.501225] 100
[2025-04-13 13:55:43.501225] 169
[2025-04-13 13:55:43.501225] 144
[2025-04-13 13:55:43.501225] 100
[2025-04-13 13:55:43.501225] 25
[2025-04-13 13:55:43.501225] 1
[2025-04-13 13:55:43.510096] 25
[2025-04-13 13:55:43.510096] 81
[2025-04-13 13:55:43.510096] 144
[2025-04-13 13:55:43.510096] 169
[2025-04-13 13:55:43.510096] 196
[2025-04-13 13:55:43.510096] 144
[2025-04-13 13:55:43.510096] 81
[2025-04-13 13:55:43.519113] 36
[2025-04-13 13:55:43.519113] 4
[2025-04-13 13:55:43.519113] 4
[2025-04-13 13:55:43.519113] 49
[2025-04-13 13:55:43.519113] 121
[2025-04-13 13:55:43.519113] 196
[2025-04-13 13:55:43.519113] 169
[2025-04-13 13:55:43.527461] 81
[2025-04-13 13:55:43.527461] 16
[2025-04-13 13:55:43.527461] 1
[2025-04-13 13:55:43.527461] 36
[2025-04-13 13:55:43.528441] 121
[2025-04-13 13:55:43.528441] 196
[2025-04-13 13:55:43.528441] 225
[2025-04-13 13:55:43.528441] 225
[2025-04-13 13:55:43.537037] 144
[2025-04-13 13:55:43.537037] 100
[2025-04-13 13:55:43.537037] 36
[2025-04-13 13:55:43.537037] 1
[2025-04-13 13:55:43.537037] 16
[2025-04-13 13:55:43.537037] 81
[2025-04-13 13:55:43.537037] 144
[2025-04-13 13:55:43.545051] 169
[2025-04-13 13:55:43.545051] 121
[2025-04-13 13:55:43.545051] 64
[2025-04-13 13:55:43.545051] 1
[2025-04-13 13:55:43.546046] 16
[2025-04-13 13:55:43.546046] 64
[2025-04-13 13:55:43.546046] 100
[2025-04-13 13:55:43.553051] 169
[2025-04-13 13:55:43.553051] 196
[2025-04-13 13:55:43.554043] 196
[2025-04-13 13:55:43.554043] 144
[2025-04-13 13:55:43.554043] 100
[2025-04-13 13:55:43.554043] 25
[2025-04-13 13:55:43.554043] 0
[2025-04-13 13:55:43.554043] 36
[2025-04-13 13:55:43.562516] 121
[2025-04-13 13:55:43.562516] 196
[2025-04-13 13:55:43.562516] 196
[2025-04-13 13:55:43.563519] 121
[2025-04-13 13:55:43.563519] 25
[2025-04-13 13:55:43.563519] 0
[2025-04-13 13:55:43.563519] 36
[2025-04-13 13:55:43.570612] 81
[2025-04-13 13:55:43.570612] 121
[2025-04-13 13:55:43.570612] 169
[2025-04-13 13:55:43.570612] 225
[2025-04-13 13:55:43.570612] 196
[2025-04-13 13:55:43.570612] 121
[2025-04-13 13:55:43.570612] 49
[2025-04-13 13:55:43.579945] 9
[2025-04-13 13:55:43.579945] 1
[2025-04-13 13:55:43.579945] 49
[2025-04-13 13:55:43.579945] 121
[2025-04-13 13:55:43.579945] 196
[2025-04-13 13:55:43.579945] 196
[2025-04-13 13:55:43.579945] 100
[2025-04-13 13:55:43.590001] 16
[2025-04-13 13:55:43.590001] 1
[2025-04-13 13:55:43.590001] 49
[2025-04-13 13:55:43.590001] 121
[2025-04-13 13:55:43.590001] 144
[2025-04-13 13:55:43.590952] 169
[2025-04-13 13:55:43.590952] 169
[2025-04-13 13:55:43.597612] 144
[2025-04-13 13:55:43.597612] 100
[2025-04-13 13:55:43.597612] 36
[2025-04-13 13:55:43.597612] 4
[2025-04-13 13:55:43.597612] 4
[2025-04-13 13:55:43.597612] 64
[2025-04-13 13:55:43.597612] 121
[2025-04-13 13:55:43.597612] 196
[2025-04-13 13:55:43.605763] 169
[2025-04-13 13:55:43.605763] 81
[2025-04-13 13:55:43.605763] 16
[2025-04-13 13:55:43.605763] 4
[2025-04-13 13:55:43.605763] 49
[2025-04-13 13:55:43.605763] 121
[2025-04-13 13:55:43.606618] 196
[2025-04-13 13:55:43.615634] 225
[2025-04-13 13:55:43.615634] 196
[2025-04-13 13:55:43.615634] 121
[2025-04-13 13:55:43.615634] 64
[2025-04-13 13:55:43.615634] 36
[2025-04-13 13:55:43.615634] 1
[2025-04-13 13:55:43.615634] 9
[2025-04-13 13:55:43.615634] 49
[2025-04-13 13:55:43.623860] 121
[2025-04-13 13:55:43.623860] 144
[2025-04-13 13:55:43.623860] 121
[2025-04-13 13:55:43.623860] 49
[2025-04-13 13:55:43.623860] 9
[2025-04-13 13:55:43.623860] 4
[2025-04-13 13:55:43.623860] 36
[2025-04-13 13:55:43.623860] 100
[2025-04-13 13:55:43.631848] 121
[2025-04-13 13:55:43.631848] 196
[2025-04-13 13:55:43.631848] 196
[2025-04-13 13:55:43.632850] 169
[2025-04-13 13:55:43.632850] 121
[2025-04-13 13:55:43.632850] 49
[2025-04-13 13:55:43.632850] 4
[2025-04-13 13:55:43.641498] 9
[2025-04-13 13:55:43.641498] 64
[2025-04-13 13:55:43.641498] 169
[2025-04-13 13:55:43.641498] 225
[2025-04-13 13:55:43.641498] 196
[2025-04-13 13:55:43.641498] 81
[2025-04-13 13:55:43.641498] 4
[2025-04-13 13:55:43.641498] 9
[2025-04-13 13:55:43.649558] 64
[2025-04-13 13:55:43.649558] 144
[2025-04-13 13:55:43.649558] 196
[2025-04-13 13:55:43.650537] 256
[2025-04-13 13:55:43.650537] 169
[2025-04-13 13:55:43.650537] 81
[2025-04-13 13:55:43.650537] 64
[2025-04-13 13:55:43.659504] 25
[2025-04-13 13:55:43.659504] 0
[2025-04-13 13:55:43.659504] 9
[2025-04-13 13:55:43.659504] 64
[2025-04-13 13:55:43.659504] 144
[2025-04-13 13:55:43.659504] 196
[2025-04-13 13:55:43.659504] 144
[2025-04-13 13:55:43.667835] 36
[2025-04-13 13:55:43.667835] 1
[2025-04-13 13:55:43.667835] 16
[2025-04-13 13:55:43.667835] 64
[2025-04-13 13:55:43.667835] 144
[2025-04-13 13:55:43.667835] 196
[2025-04-13 13:55:43.667835] 225
[2025-04-13 13:55:43.667835] 169
[2025-04-13 13:55:43.677244] 100
[2025-04-13 13:55:43.677244] 64
[2025-04-13 13:55:43.677244] 25
[2025-04-13 13:55:43.677244] 0
[2025-04-13 13:55:43.677244] 25
[2025-04-13 13:55:43.677244] 100
[2025-04-13 13:55:43.677244] 169
[2025-04-13 13:55:43.685162] 169
[2025-04-13 13:55:43.685162] 121
[2025-04-13 13:55:43.685162] 36
[2025-04-13 13:55:43.685162] 0
[2025-04-13 13:55:43.685162] 36
[2025-04-13 13:55:43.685162] 100
[2025-04-13 13:55:43.686155] 169
[2025-04-13 13:55:43.694185] 196
[2025-04-13 13:55:43.694185] 196
[2025-04-13 13:55:43.694185] 144
[2025-04-13 13:55:43.694185] 100
[2025-04-13 13:55:43.694185] 64
[2025-04-13 13:55:43.694185] 25
[2025-04-13 13:55:43.694185] 0
[2025-04-13 13:55:43.694185] 36
[2025-04-13 13:55:43.703390] 169
[2025-04-13 13:55:43.703390] 256
[2025-04-13 13:55:43.703390] 225
[2025-04-13 13:55:43.703390] 121
[2025-04-13 13:55:43.703390] 25
[2025-04-13 13:55:43.703390] 1
[2025-04-13 13:55:43.703390] 36
[2025-04-13 13:55:43.710390] 100
[2025-04-13 13:55:43.710390] 169
[2025-04-13 13:55:43.710390] 196
[2025-04-13 13:55:43.710390] 196
[2025-04-13 13:55:43.710390] 169
[2025-04-13 13:55:43.711422] 100
[2025-04-13 13:55:43.719241] 81
[2025-04-13 13:55:43.720258] 9
[2025-04-13 13:55:43.720258] 4
[2025-04-13 13:55:43.720258] 49
[2025-04-13 13:55:43.720258] 144
[2025-04-13 13:55:43.721253] 196
[2025-04-13 13:55:43.721253] 169
[2025-04-13 13:55:43.721253] 81
[2025-04-13 13:55:43.727960] 16
[2025-04-13 13:55:43.727960] 1
[2025-04-13 13:55:43.727960] 36
[2025-04-13 13:55:43.727960] 100
[2025-04-13 13:55:43.728953] 169
[2025-04-13 13:55:43.728953] 225
[2025-04-13 13:55:43.728953] 196
[2025-04-13 13:55:43.737952] 144
[2025-04-13 13:55:43.737952] 81
[2025-04-13 13:55:43.737952] 36
[2025-04-13 13:55:43.737952] 1
[2025-04-13 13:55:43.737952] 4
[2025-04-13 13:55:43.737952] 36
[2025-04-13 13:55:43.737952] 121
[2025-04-13 13:55:43.737952] 144
[2025-04-13 13:55:43.746375] 144
[2025-04-13 13:55:43.746375] 64
[2025-04-13 13:55:43.746375] 1
[2025-04-13 13:55:43.746375] 9
[2025-04-13 13:55:43.746375] 64
[2025-04-13 13:55:43.746375] 121
[2025-04-13 13:55:43.746375] 144
[2025-04-13 13:55:43.746375] 169
[2025-04-13 13:55:43.755522] 144
[2025-04-13 13:55:43.755522] 121
[2025-04-13 13:55:43.755522] 64
[2025-04-13 13:55:43.755522] 36
[2025-04-13 13:55:43.755522] 1
[2025-04-13 13:55:43.755522] 16
[2025-04-13 13:55:43.755522] 64
[2025-04-13 13:55:43.764522] 144
[2025-04-13 13:55:43.764522] 196
