[2025-04-13 13:54:37.638217] 36
[2025-04-13 13:54:37.638217] 16
[2025-04-13 13:54:37.638217] 9
[2025-04-13 13:54:37.648206] 4
[2025-04-13 13:54:37.648206] 4
[2025-04-13 13:54:37.648206] 1
[2025-04-13 13:54:37.648206] 4
[2025-04-13 13:54:37.648206] 9
[2025-04-13 13:54:37.648206] 25
[2025-04-13 13:54:37.648206] 64
[2025-04-13 13:54:37.648206] 121
[2025-04-13 13:54:37.657552] 144
[2025-04-13 13:54:37.657552] 144
[2025-04-13 13:54:37.657552] 100
[2025-04-13 13:54:37.658524] 49
[2025-04-13 13:54:37.658524] 9
[2025-04-13 13:54:37.658524] 0
[2025-04-13 13:54:37.658524] 9
[2025-04-13 13:54:37.658524] 36
[2025-04-13 13:54:37.659547] 81
[2025-04-13 13:54:37.665561] 144
[2025-04-13 13:54:37.666539] 169
[2025-04-13 13:54:37.666539] 256
[2025-04-13 13:54:37.666539] 289
[2025-04-13 13:54:37.666539] 289
[2025-04-13 13:54:37.667526] 196
[2025-04-13 13:54:37.675570] 121
[2025-04-13 13:54:37.675570] 36
[2025-04-13 13:54:37.675570] 4
[2025-04-13 13:54:37.675570] 1
[2025-04-13 13:54:37.675570] 25
[2025-04-13 13:54:37.675570] 64
[2025-04-13 13:54:37.675570] 81
[2025-04-13 13:54:37.675570] 100
[2025-04-13 13:54:37.684160] 100
[2025-04-13 13:54:37.684160] 81
[2025-04-13 13:54:37.684160] 49
[2025-04-13 13:54:37.684160] 16
[2025-04-13 13:54:37.684160] 1
[2025-04-13 13:54:37.684160] 36
[2025-04-13 13:54:37.684160] 121
[2025-04-13 13:54:37.684160] 256
[2025-04-13 13:54:37.692195] 289
[2025-04-13 13:54:37.692195] 361
[2025-04-13 13:54:37.692195] 289
[2025-04-13 13:54:37.692195] 225
[2025-04-13 13:54:37.692195] 144
[2025-04-13 13:54:37.692195] 36
[2025-04-13 13:54:37.693083] 1
[2025-04-13 13:54:37.701025] 9
[2025-04-13 13:54:37.701025] 64
[2025-04-13 13:54:37.701025] 144
[2025-04-13 13:54:37.701025] 225
[2025-04-13 13:54:37.701025] 256
[2025-04-13 13:54:37.701025] 225
[2025-04-13 13:54:37.701025] 144
[2025-04-13 13:54:37.710037] 49
[2025-04-13 13:54:37.710037] 1
[2025-04-13 13:54:37.710037] 16
[2025-04-13 13:54:37.710037] 100
[2025-04-13 13:54:37.710037] 225
[2025-04-13 13:54:37.711030] 289
[2025-04-13 13:54:37.711030] 324
[2025-04-13 13:54:37.718634] 289
[2025-04-13 13:54:37.718634] 225
[2025-04-13 13:54:37.718634] 144
[2025-04-13 13:54:37.718634] 64
[2025-04-13 13:54:37.718634] 9
[2025-04-13 13:54:37.718634] 4
[2025-04-13 13:54:37.718634] 49
[2025-04-13 13:54:37.727496] 121
[2025-04-13 13:54:37.727496] 196
[2025-04-13 13:54:37.727496] 196
[2025-04-13 13:54:37.727496] 144
[2025-04-13 13:54:37.727496] 81
[2025-04-13 13:54:37.727496] 25
[2025-04-13 13:54:37.727496] 0
[2025-04-13 13:54:37.727496] 9
[2025-04-13 13:54:37.735512] 36
[2025-04-13 13:54:37.735512] 100
[2025-04-13 13:54:37.735512] 169
[2025-04-13 13:54:37.735512] 225
[2025-04-13 13:54:37.735512] 256
[2025-04-13 13:54:37.735512] 196
[2025-04-13 13:54:37.735512] 121
[2025-04-13 13:54:37.745688] 49
[2025-04-13 13:54:37.745688] 4
[2025-04-13 13:54:37.745688] 4
[2025-04-13 13:54:37.745688] 49
[2025-04-13 13:54:37.745688] 81
[2025-04-13 13:54:37.745688] 100
[2025-04-13 13:54:37.745688] 64
[2025-04-13 13:54:37.745688] 36
[2025-04-13 13:54:37.755707] 9
[2025-04-13 13:54:37.755707] 0
[2025-04-13 13:54:37.756690] 1
[2025-04-13 13:54:37.756690] 9
[2025-04-13 13:54:37.756690] 25
[2025-04-13 13:54:37.756690] 36
[2025-04-13 13:54:37.756690] 64
[2025-04-13 13:54:37.756690] 81
[2025-04-13 13:54:37.757688] 49
[2025-04-13 13:54:37.767020] 36
[2025-04-13 13:54:37.767020] 16
[2025-04-13 13:54:37.767902] 4
[2025-04-13 13:54:37.767902] 0
[2025-04-13 13:54:37.767902] 0
[2025-04-13 13:54:37.767902] 1
[2025-04-13 13:54:37.767902] 1
[2025-04-13 13:54:37.767902] 1
[2025-04-13 13:54:37.768894] 0
[2025-04-13 13:54:37.768894] 0
[2025-04-13 13:54:37.778851] 1
[2025-04-13 13:54:37.778851] 4
[2025-04-13 13:54:37.778851] 4
[2025-04-13 13:54:37.778851] 4
[2025-04-13 13:54:37.778851] 1
[2025-04-13 13:54:37.778851] 4
[2025-04-13 13:54:37.778851] 16
[2025-04-13 13:54:37.778851] 9
[2025-04-13 13:54:37.778851] 4
[2025-04-13 13:54:37.778851] 1
[2025-04-13 13:54:37.790107] 0
[2025-04-13 13:54:37.790107] 0
[2025-04-13 13:54:37.790107] 0
[2025-04-13 13:54:37.790107] 0
[2025-04-13 13:54:37.790107] 4
[2025-04-13 13:54:37.790107] 9
[2025-04-13 13:54:37.790107] 16
[2025-04-13 13:54:37.790107] 9
[2025-04-13 13:54:37.790645] 9
[2025-04-13 13:54:37.790645] 4
[2025-04-13 13:54:37.790645] 4
[2025-04-13 13:54:37.801794] 1
[2025-04-13 13:54:37.801794] 1
[2025-04-13 13:54:37.802690] 1
[2025-04-13 13:54:37.802690] 0
[2025-04-13 13:54:37.802690] 0
[2025-04-13 13:54:37.802690] 0
[2025-04-13 13:54:37.802690] 1
[2025-04-13 13:54:37.802690] 1
[2025-04-13 13:54:37.802690] 1
[2025-04-13 13:54:37.802690] 1
[2025-04-13 13:54:37.812802] 0
[2025-04-13 13:54:37.812802] 1
[2025-04-13 13:54:37.812802] 9
[2025-04-13 13:54:37.812802] 25
[2025-04-13 13:54:37.812802] 36
[2025-04-13 13:54:37.812802] 49
[2025-04-13 13:54:37.812802] 49
[2025-04-13 13:54:37.812802] 25
[2025-04-13 13:54:37.812802] 9
[2025-04-13 13:54:37.824828] 0
[2025-04-13 13:54:37.824828] 0
[2025-04-13 13:54:37.824828] 4
[2025-04-13 13:54:37.824828] 4
[2025-04-13 13:54:37.824828] 1
[2025-04-13 13:54:37.824828] 0
[2025-04-13 13:54:37.824828] 0
[2025-04-13 13:54:37.824828] 0
[2025-04-13 13:54:37.824828] 0
[2025-04-13 13:54:37.824828] 0
[2025-04-13 13:54:37.824828] 0
[2025-04-13 13:54:37.834517] 1
[2025-04-13 13:54:37.834517] 9
[2025-04-13 13:54:37.834517] 16
[2025-04-13 13:54:37.834517] 36
[2025-04-13 13:54:37.834517] 36
[2025-04-13 13:54:37.834517] 25
[2025-04-13 13:54:37.834517] 16
[2025-04-13 13:54:37.834517] 16
[2025-04-13 13:54:37.845423] 16
[2025-04-13 13:54:37.845423] 16
[2025-04-13 13:54:37.845423] 1
[2025-04-13 13:54:37.845423] 0
[2025-04-13 13:54:37.846450] 4
[2025-04-13 13:54:37.846450] 16
[2025-04-13 13:54:37.846450] 16
[2025-04-13 13:54:37.846450] 4
[2025-04-13 13:54:37.846450] 0
[2025-04-13 13:54:37.847427] 0
[2025-04-13 13:54:37.854942] 4
[2025-04-13 13:54:37.854942] 16
[2025-04-13 13:54:37.854942] 16
[2025-04-13 13:54:37.854942] 16
[2025-04-13 13:54:37.854942] 9
[2025-04-13 13:54:37.855937] 9
[2025-04-13 13:54:37.855937] 16
[2025-04-13 13:54:37.855937] 16
[2025-04-13 13:54:37.855937] 16
[2025-04-13 13:54:37.867449] 4
[2025-04-13 13:54:37.867449] 1
[2025-04-13 13:54:37.867449] 0
[2025-04-13 13:54:37.867449] 1
[2025-04-13 13:54:37.867449] 1
[2025-04-13 13:54:37.867449] 1
[2025-04-13 13:54:37.867449] 0
[2025-04-13 13:54:37.867449] 0
[2025-04-13 13:54:37.867449] 1
[2025-04-13 13:54:37.867449] 4
[2025-04-13 13:54:37.879610] 4
[2025-04-13 13:54:37.879610] 4
[2025-04-13 13:54:37.879610] 4
[2025-04-13 13:54:37.879610] 4
[2025-04-13 13:54:37.879610] 1
[2025-04-13 13:54:37.879610] 1
[2025-04-13 13:54:37.879610] 1
[2025-04-13 13:54:37.879610] 1
[2025-04-13 13:54:37.879610] 0
[2025-04-13 13:54:37.879610] 1
[2025-04-13 13:54:37.880616] 0
[2025-04-13 13:54:37.889058] 0
[2025-04-13 13:54:37.889058] 0
[2025-04-13 13:54:37.889058] 4
[2025-04-13 13:54:37.889058] 16
[2025-04-13 13:54:37.889058] 25
[2025-04-13 13:54:37.889058] 36
[2025-04-13 13:54:37.889058] 36
[2025-04-13 13:54:37.889058] 25
[2025-04-13 13:54:37.889058] 16
[2025-04-13 13:54:37.901070] 9
[2025-04-13 13:54:37.901070] 1
[2025-04-13 13:54:37.901070] 0
[2025-04-13 13:54:37.901070] 0
[2025-04-13 13:54:37.901070] 1
[2025-04-13 13:54:37.901070] 4
[2025-04-13 13:54:37.901070] 9
[2025-04-13 13:54:37.901070] 9
[2025-04-13 13:54:37.901070] 9
[2025-04-13 13:54:37.901070] 1
[2025-04-13 13:54:37.910883] 1
[2025-04-13 13:54:37.910883] 9
[2025-04-13 13:54:37.910883] 36
[2025-04-13 13:54:37.911247] 49
[2025-04-13 13:54:37.911247] 64
[2025-04-13 13:54:37.911247] 64
[2025-04-13 13:54:37.911247] 64
[2025-04-13 13:54:37.911247] 25
[2025-04-13 13:54:37.911247] 16
[2025-04-13 13:54:37.921967] 4
[2025-04-13 13:54:37.921967] 0
[2025-04-13 13:54:37.921967] 1
[2025-04-13 13:54:37.921967] 9
[2025-04-13 13:54:37.921967] 25
[2025-04-13 13:54:37.921967] 25
[2025-04-13 13:54:37.921967] 36
[2025-04-13 13:54:37.921967] 25
[2025-04-13 13:54:37.921967] 9
[2025-04-13 13:54:37.930980] 0
[2025-04-13 13:54:37.930980] 9
[2025-04-13 13:54:37.930980] 49
[2025-04-13 13:54:37.930980] 81
[2025-04-13 13:54:37.930980] 81
[2025-04-13 13:54:37.931973] 64
[2025-04-13 13:54:37.931973] 64
[2025-04-13 13:54:37.931973] 49
[2025-04-13 13:54:37.940976] 36
[2025-04-13 13:54:37.941974] 16
[2025-04-13 13:54:37.941974] 4
[2025-04-13 13:54:37.941974] 0
[2025-04-13 13:54:37.941974] 4
[2025-04-13 13:54:37.941974] 25
[2025-04-13 13:54:37.941974] 49
[2025-04-13 13:54:37.943000] 49
[2025-04-13 13:54:37.943000] 36
[2025-04-13 13:54:37.951086] 25
[2025-04-13 13:54:37.951086] 1
[2025-04-13 13:54:37.951086] 0
[2025-04-13 13:54:37.951086] 16
[2025-04-13 13:54:37.951086] 36
[2025-04-13 13:54:37.952126] 64
[2025-04-13 13:54:37.952126] 100
[2025-04-13 13:54:37.952126] 100
[2025-04-13 13:54:37.960135] 100
[2025-04-13 13:54:37.960135] 81
[2025-04-13 13:54:37.960135] 49
[2025-04-13 13:54:37.960135] 25
[2025-04-13 13:54:37.961115] 1
[2025-04-13 13:54:37.961115] 1
[2025-04-13 13:54:37.961115] 16
[2025-04-13 13:54:37.961115] 64
[2025-04-13 13:54:37.971102] 64
[2025-04-13 13:54:37.971102] 49
[2025-04-13 13:54:37.971102] 36
[2025-04-13 13:54:37.971102] 9
[2025-04-13 13:54:37.971102] 0
[2025-04-13 13:54:37.971102] 4
[2025-04-13 13:54:37.971102] 25
[2025-04-13 13:54:37.971102] 49
[2025-04-13 13:54:37.971102] 64
[2025-04-13 13:54:37.980782] 81
[2025-04-13 13:54:37.980782] 81
[2025-04-13 13:54:37.981638] 64
[2025-04-13 13:54:37.981638] 49
[2025-04-13 13:54:37.981638] 25
[2025-04-13 13:54:37.981638] 4
[2025-04-13 13:54:37.981638] 0
[2025-04-13 13:54:37.981638] 9
[2025-04-13 13:54:37.981638] 25
[2025-04-13 13:54:37.991664] 25
[2025-04-13 13:54:37.991664] 9
[2025-04-13 13:54:37.991664] 4
[2025-04-13 13:54:37.991664] 1
[2025-04-13 13:54:37.991664] 0
[2025-04-13 13:54:37.991664] 4
[2025-04-13 13:54:37.991664] 9
[2025-04-13 13:54:37.991664] 16
[2025-04-13 13:54:37.991664] 36
[2025-04-13 13:54:38.002821] 36
[2025-04-13 13:54:38.002821] 36
[2025-04-13 13:54:38.002821] 25
[2025-04-13 13:54:38.002821] 16
[2025-04-13 13:54:38.002821] 4
[2025-04-13 13:54:38.003670] 0
[2025-04-13 13:54:38.003670] 1
[2025-04-13 13:54:38.003670] 0
[2025-04-13 13:54:38.005707] 0
[2025-04-13 13:54:38.005707] 1
[2025-04-13 13:54:38.014419] 1
[2025-04-13 13:54:38.014419] 1
[2025-04-13 13:54:38.014419] 0
[2025-04-13 13:54:38.014419] 0
[2025-04-13 13:54:38.014419] 0
[2025-04-13 13:54:38.014419] 0
[2025-04-13 13:54:38.014419] 1
[2025-04-13 13:54:38.014419] 4
[2025-04-13 13:54:38.014419] 9
[2025-04-13 13:54:38.014419] 16
[2025-04-13 13:54:38.024979] 16
[2025-04-13 13:54:38.024979] 9
[2025-04-13 13:54:38.026072] 1
[2025-04-13 13:54:38.026072] 0
[2025-04-13 13:54:38.026072] 0
[2025-04-13 13:54:38.026072] 0
[2025-04-13 13:54:38.026072] 0
[2025-04-13 13:54:38.026072] 0
[2025-04-13 13:54:38.026072] 0
[2025-04-13 13:54:38.026072] 1
[2025-04-13 13:54:38.026072] 4
[2025-04-13 13:54:38.036999] 9
[2025-04-13 13:54:38.036999] 9
[2025-04-13 13:54:38.036999] 16
[2025-04-13 13:54:38.036999] 9
[2025-04-13 13:54:38.036999] 9
[2025-04-13 13:54:38.037983] 16
[2025-04-13 13:54:38.037983] 9
[2025-04-13 13:54:38.037983] 4
[2025-04-13 13:54:38.037983] 0
[2025-04-13 13:54:38.037983] 0
[2025-04-13 13:54:38.047704] 0
[2025-04-13 13:54:38.047704] 1
[2025-04-13 13:54:38.047704] 0
[2025-04-13 13:54:38.047704] 0
[2025-04-13 13:54:38.047704] 4
[2025-04-13 13:54:38.048703] 16
[2025-04-13 13:54:38.048703] 25
[2025-04-13 13:54:38.048703] 16
[2025-04-13 13:54:38.048703] 9
[2025-04-13 13:54:38.059701] 1
[2025-04-13 13:54:38.060709] 4
[2025-04-13 13:54:38.060709] 9
[2025-04-13 13:54:38.060709] 9
[2025-04-13 13:54:38.060709] 4
[2025-04-13 13:54:38.060709] 1
[2025-04-13 13:54:38.060709] 0
[2025-04-13 13:54:38.060709] 0
[2025-04-13 13:54:38.060709] 1
[2025-04-13 13:54:38.060709] 4
[2025-04-13 13:54:38.060709] 9
[2025-04-13 13:54:38.070146] 9
[2025-04-13 13:54:38.070146] 1
[2025-04-13 13:54:38.070146] 4
[2025-04-13 13:54:38.070146] 16
[2025-04-13 13:54:38.070146] 25
[2025-04-13 13:54:38.070146] 49
[2025-04-13 13:54:38.070146] 36
[2025-04-13 13:54:38.070146] 25
[2025-04-13 13:54:38.070146] 25
[2025-04-13 13:54:38.081128] 25
[2025-04-13 13:54:38.081128] 16
[2025-04-13 13:54:38.081128] 4
[2025-04-13 13:54:38.081128] 0
[2025-04-13 13:54:38.082057] 1
[2025-04-13 13:54:38.082057] 1
[2025-04-13 13:54:38.082057] 9
[2025-04-13 13:54:38.082057] 9
[2025-04-13 13:54:38.082057] 4
[2025-04-13 13:54:38.082057] 1
[2025-04-13 13:54:38.091719] 0
[2025-04-13 13:54:38.091719] 0
[2025-04-13 13:54:38.091719] 4
[2025-04-13 13:54:38.091719] 16
[2025-04-13 13:54:38.091719] 36
[2025-04-13 13:54:38.092169] 36
[2025-04-13 13:54:38.092169] 36
[2025-04-13 13:54:38.092169] 25
[2025-04-13 13:54:38.102632] 25
[2025-04-13 13:54:38.102632] 16
[2025-04-13 13:54:38.102632] 4
[2025-04-13 13:54:38.102632] 0
[2025-04-13 13:54:38.102632] 1
[2025-04-13 13:54:38.102632] 4
[2025-04-13 13:54:38.102632] 9
[2025-04-13 13:54:38.102632] 16
[2025-04-13 13:54:38.102632] 9
[2025-04-13 13:54:38.102632] 1
[2025-04-13 13:54:38.112779] 0
[2025-04-13 13:54:38.112779] 0
[2025-04-13 13:54:38.112779] 4
[2025-04-13 13:54:38.113787] 16
[2025-04-13 13:54:38.113787] 49
[2025-04-13 13:54:38.113787] 64
[2025-04-13 13:54:38.113787] 81
[2025-04-13 13:54:38.113787] 49
[2025-04-13 13:54:38.113787] 36
[2025-04-13 13:54:38.123704] 16
[2025-04-13 13:54:38.123704] 4
[2025-04-13 13:54:38.123704] 0
[2025-04-13 13:54:38.123704] 1
[2025-04-13 13:54:38.123704] 9
[2025-04-13 13:54:38.123704] 16
[2025-04-13 13:54:38.123704] 16
[2025-04-13 13:54:38.123704] 9
[2025-04-13 13:54:38.123704] 1
[2025-04-13 13:54:38.123704] 0
[2025-04-13 13:54:38.133742] 4
[2025-04-13 13:54:38.133742] 16
[2025-04-13 13:54:38.133742] 25
[2025-04-13 13:54:38.134712] 25
[2025-04-13 13:54:38.134712] 25
[2025-04-13 13:54:38.134712] 36
[2025-04-13 13:54:38.134712] 16
[2025-04-13 13:54:38.134712] 9
[2025-04-13 13:54:38.144792] 9
[2025-04-13 13:54:38.144792] 4
[2025-04-13 13:54:38.145800] 0
[2025-04-13 13:54:38.145800] 4
[2025-04-13 13:54:38.145800] 9
[2025-04-13 13:54:38.145800] 9
[2025-04-13 13:54:38.145800] 4
[2025-04-13 13:54:38.145800] 0
[2025-04-13 13:54:38.145800] 1
[2025-04-13 13:54:38.145800] 9
[2025-04-13 13:54:38.145800] 16
[2025-04-13 13:54:38.154816] 25
[2025-04-13 13:54:38.155835] 25
[2025-04-13 13:54:38.155835] 25
[2025-04-13 13:54:38.155835] 25
[2025-04-13 13:54:38.155835] 25
[2025-04-13 13:54:38.155835] 16
[2025-04-13 13:54:38.155835] 16
[2025-04-13 13:54:38.155835] 4
[2025-04-13 13:54:38.166238] 0
[2025-04-13 13:54:38.166238] 4
[2025-04-13 13:54:38.166238] 16
[2025-04-13 13:54:38.166238] 25
[2025-04-13 13:54:38.166238] 25
[2025-04-13 13:54:38.166238] 4
[2025-04-13 13:54:38.166238] 0
[2025-04-13 13:54:38.166238] 1
[2025-04-13 13:54:38.166238] 9
[2025-04-13 13:54:38.176189] 25
[2025-04-13 13:54:38.176189] 36
[2025-04-13 13:54:38.176189] 49
[2025-04-13 13:54:38.177183] 64
[2025-04-13 13:54:38.177183] 64
[2025-04-13 13:54:38.178186] 49
[2025-04-13 13:54:38.178186] 25
[2025-04-13 13:54:38.178186] 1
[2025-04-13 13:54:38.178186] 1
[2025-04-13 13:54:38.186835] 16
[2025-04-13 13:54:38.186835] 36
[2025-04-13 13:54:38.186835] 36
[2025-04-13 13:54:38.186835] 16
[2025-04-13 13:54:38.186835] 4
[2025-04-13 13:54:38.186835] 0
[2025-04-13 13:54:38.186835] 1
[2025-04-13 13:54:38.186835] 9
[2025-04-13 13:54:38.186835] 16
[2025-04-13 13:54:38.196250] 25
[2025-04-13 13:54:38.196250] 36
[2025-04-13 13:54:38.196250] 49
[2025-04-13 13:54:38.196250] 49
[2025-04-13 13:54:38.196250] 36
[2025-04-13 13:54:38.196250] 36
[2025-04-13 13:54:38.196250] 16
[2025-04-13 13:54:38.196250] 9
[2025-04-13 13:54:38.206578] 0
[2025-04-13 13:54:38.206578] 1
[2025-04-13 13:54:38.206578] 9
[2025-04-13 13:54:38.206578] 25
[2025-04-13 13:54:38.207405] 36
[2025-04-13 13:54:38.207405] 16
[2025-04-13 13:54:38.207405] 1
[2025-04-13 13:54:38.207405] 1
[2025-04-13 13:54:38.207405] 16
[2025-04-13 13:54:38.216929] 36
[2025-04-13 13:54:38.216929] 49
[2025-04-13 13:54:38.216929] 49
[2025-04-13 13:54:38.216929] 36
[2025-04-13 13:54:38.216929] 25
[2025-04-13 13:54:38.216929] 9
[2025-04-13 13:54:38.216929] 9
[2025-04-13 13:54:38.216929] 4
[2025-04-13 13:54:38.216929] 0
[2025-04-13 13:54:38.217555] 1
[2025-04-13 13:54:38.228253] 9
[2025-04-13 13:54:38.228253] 16
[2025-04-13 13:54:38.228253] 16
[2025-04-13 13:54:38.228253] 9
[2025-04-13 13:54:38.229248] 1
[2025-04-13 13:54:38.229248] 0
[2025-04-13 13:54:38.229248] 1
[2025-04-13 13:54:38.229248] 9
[2025-04-13 13:54:38.229248] 16
[2025-04-13 13:54:38.237557] 16
[2025-04-13 13:54:38.237557] 25
[2025-04-13 13:54:38.238260] 25
[2025-04-13 13:54:38.238260] 25
[2025-04-13 13:54:38.238260] 36
[2025-04-13 13:54:38.238260] 36
[2025-04-13 13:54:38.238260] 25
[2025-04-13 13:54:38.238260] 1
[2025-04-13 13:54:38.238260] 1
[2025-04-13 13:54:38.249039] 9
[2025-04-13 13:54:38.249039] 16
[2025-04-13 13:54:38.249039] 9
[2025-04-13 13:54:38.249039] 1
[2025-04-13 13:54:38.249039] 0
[2025-04-13 13:54:38.249039] 1
[2025-04-13 13:54:38.249039] 9
[2025-04-13 13:54:38.249039] 25
[2025-04-13 13:54:38.249039] 25
[2025-04-13 13:54:38.260174] 25
[2025-04-13 13:54:38.260174] 25
[2025-04-13 13:54:38.260174] 9
[2025-04-13 13:54:38.260174] 9
[2025-04-13 13:54:38.260174] 4
[2025-04-13 13:54:38.260174] 4
[2025-04-13 13:54:38.260174] 1
[2025-04-13 13:54:38.260174] 0
[2025-04-13 13:54:38.260174] 1
[2025-04-13 13:54:38.261205] 1
[2025-04-13 13:54:38.270503] 4
[2025-04-13 13:54:38.270503] 1
[2025-04-13 13:54:38.270503] 0
[2025-04-13 13:54:38.270503] 1
[2025-04-13 13:54:38.270503] 4
[2025-04-13 13:54:38.270503] 9
[2025-04-13 13:54:38.270503] 16
[2025-04-13 13:54:38.270503] 16
[2025-04-13 13:54:38.270503] 25
[2025-04-13 13:54:38.271391] 16
[2025-04-13 13:54:38.282491] 9
[2025-04-13 13:54:38.282491] 4
[2025-04-13 13:54:38.282491] 1
[2025-04-13 13:54:38.282491] 0
[2025-04-13 13:54:38.282491] 0
[2025-04-13 13:54:38.283389] 1
[2025-04-13 13:54:38.283389] 4
[2025-04-13 13:54:38.283389] 4
[2025-04-13 13:54:38.283389] 1
[2025-04-13 13:54:38.283389] 0
[2025-04-13 13:54:38.293117] 1
[2025-04-13 13:54:38.293117] 4
[2025-04-13 13:54:38.293117] 9
[2025-04-13 13:54:38.293117] 25
[2025-04-13 13:54:38.293117] 25
[2025-04-13 13:54:38.293117] 36
[2025-04-13 13:54:38.293117] 36
[2025-04-13 13:54:38.293117] 25
[2025-04-13 13:54:38.293117] 9
[2025-04-13 13:54:38.303973] 4
[2025-04-13 13:54:38.303973] 1
[2025-04-13 13:54:38.304976] 0
[2025-04-13 13:54:38.304976] 1
[2025-04-13 13:54:38.304976] 4
[2025-04-13 13:54:38.304976] 9
[2025-04-13 13:54:38.304976] 9
[2025-04-13 13:54:38.304976] 4
[2025-04-13 13:54:38.304976] 0
[2025-04-13 13:54:38.304976] 1
[2025-04-13 13:54:38.304976] 16
[2025-04-13 13:54:38.314857] 36
[2025-04-13 13:54:38.314857] 36
[2025-04-13 13:54:38.315763] 36
[2025-04-13 13:54:38.315763] 36
[2025-04-13 13:54:38.315763] 36
[2025-04-13 13:54:38.315763] 25
[2025-04-13 13:54:38.315763] 16
[2025-04-13 13:54:38.315763] 4
[2025-04-13 13:54:38.325737] 0
[2025-04-13 13:54:38.325737] 0
[2025-04-13 13:54:38.326756] 1
[2025-04-13 13:54:38.326756] 9
[2025-04-13 13:54:38.326756] 16
[2025-04-13 13:54:38.326756] 4
[2025-04-13 13:54:38.326756] 0
[2025-04-13 13:54:38.326756] 1
[2025-04-13 13:54:38.326756] 9
[2025-04-13 13:54:38.326756] 16
[2025-04-13 13:54:38.336080] 16
[2025-04-13 13:54:38.336080] 9
[2025-04-13 13:54:38.336080] 9
[2025-04-13 13:54:38.337098] 25
[2025-04-13 13:54:38.337098] 25
[2025-04-13 13:54:38.337098] 16
[2025-04-13 13:54:38.337098] 16
[2025-04-13 13:54:38.337098] 4
[2025-04-13 13:54:38.337098] 0
[2025-04-13 13:54:38.347071] 4
[2025-04-13 13:54:38.347071] 16
[2025-04-13 13:54:38.347071] 16
[2025-04-13 13:54:38.347071] 16
[2025-04-13 13:54:38.347071] 4
[2025-04-13 13:54:38.347071] 1
[2025-04-13 13:54:38.347071] 1
[2025-04-13 13:54:38.347071] 9
[2025-04-13 13:54:38.347071] 16
[2025-04-13 13:54:38.356493] 36
[2025-04-13 13:54:38.356493] 49
[2025-04-13 13:54:38.356493] 49
[2025-04-13 13:54:38.356493] 49
[2025-04-13 13:54:38.356493] 36
[2025-04-13 13:54:38.356493] 25
[2025-04-13 13:54:38.356493] 16
[2025-04-13 13:54:38.356493] 4
[2025-04-13 13:54:38.356493] 0
[2025-04-13 13:54:38.367354] 9
[2025-04-13 13:54:38.367354] 16
[2025-04-13 13:54:38.367354] 16
[2025-04-13 13:54:38.367354] 16
[2025-04-13 13:54:38.367354] 4
[2025-04-13 13:54:38.367354] 0
[2025-04-13 13:54:38.367354] 1
[2025-04-13 13:54:38.367354] 9
[2025-04-13 13:54:38.367354] 16
[2025-04-13 13:54:38.377166] 25
[2025-04-13 13:54:38.378174] 25
[2025-04-13 13:54:38.379161] 25
[2025-04-13 13:54:38.379161] 36
[2025-04-13 13:54:38.379161] 25
[2025-04-13 13:54:38.379161] 16
[2025-04-13 13:54:38.379161] 9
[2025-04-13 13:54:38.379161] 0
[2025-04-13 13:54:38.379161] 0
[2025-04-13 13:54:38.388306] 1
[2025-04-13 13:54:38.388306] 4
[2025-04-13 13:54:38.388306] 9
[2025-04-13 13:54:38.388306] 4
[2025-04-13 13:54:38.388306] 0
[2025-04-13 13:54:38.388306] 0
[2025-04-13 13:54:38.388306] 9
[2025-04-13 13:54:38.389198] 9
[2025-04-13 13:54:38.389198] 16
[2025-04-13 13:54:38.389198] 25
[2025-04-13 13:54:38.399750] 16
[2025-04-13 13:54:38.399750] 16
[2025-04-13 13:54:38.399750] 9
[2025-04-13 13:54:38.399750] 9
[2025-04-13 13:54:38.399750] 4
[2025-04-13 13:54:38.399750] 1
[2025-04-13 13:54:38.399750] 0
[2025-04-13 13:54:38.400639] 0
[2025-04-13 13:54:38.400639] 4
[2025-04-13 13:54:38.400639] 4
[2025-04-13 13:54:38.411236] 1
[2025-04-13 13:54:38.411236] 0
[2025-04-13 13:54:38.411236] 0
[2025-04-13 13:54:38.411236] 1
[2025-04-13 13:54:38.411236] 9
[2025-04-13 13:54:38.411236] 16
[2025-04-13 13:54:38.411236] 16
[2025-04-13 13:54:38.412264] 9
[2025-04-13 13:54:38.412264] 25
[2025-04-13 13:54:38.420250] 36
[2025-04-13 13:54:38.420250] 49
[2025-04-13 13:54:38.420250] 36
[2025-04-13 13:54:38.421243] 16
[2025-04-13 13:54:38.421243] 1
[2025-04-13 13:54:38.421243] 1
[2025-04-13 13:54:38.421243] 16
[2025-04-13 13:54:38.421243] 25
[2025-04-13 13:54:38.421243] 16
[2025-04-13 13:54:38.431024] 9
[2025-04-13 13:54:38.431024] 0
[2025-04-13 13:54:38.431024] 1
[2025-04-13 13:54:38.431024] 4
[2025-04-13 13:54:38.431024] 16
[2025-04-13 13:54:38.431024] 36
[2025-04-13 13:54:38.431024] 36
[2025-04-13 13:54:38.431024] 36
[2025-04-13 13:54:38.431024] 25
[2025-04-13 13:54:38.442148] 25
[2025-04-13 13:54:38.442148] 16
[2025-04-13 13:54:38.442148] 4
[2025-04-13 13:54:38.442148] 0
[2025-04-13 13:54:38.442148] 1
[2025-04-13 13:54:38.442148] 9
[2025-04-13 13:54:38.442148] 9
[2025-04-13 13:54:38.442148] 9
[2025-04-13 13:54:38.442148] 4
[2025-04-13 13:54:38.442148] 0
[2025-04-13 13:54:38.452664] 1
[2025-04-13 13:54:38.452664] 9
[2025-04-13 13:54:38.452664] 16
[2025-04-13 13:54:38.452664] 25
[2025-04-13 13:54:38.452664] 36
[2025-04-13 13:54:38.452664] 25
[2025-04-13 13:54:38.452664] 25
[2025-04-13 13:54:38.452664] 25
[2025-04-13 13:54:38.463559] 16
[2025-04-13 13:54:38.463559] 4
[2025-04-13 13:54:38.463559] 0
[2025-04-13 13:54:38.463559] 1
[2025-04-13 13:54:38.463559] 4
[2025-04-13 13:54:38.463559] 4
[2025-04-13 13:54:38.463559] 9
[2025-04-13 13:54:38.463559] 4
[2025-04-13 13:54:38.464592] 1
[2025-04-13 13:54:38.464592] 0
[2025-04-13 13:54:38.464592] 4
[2025-04-13 13:54:38.473649] 9
[2025-04-13 13:54:38.474511] 16
[2025-04-13 13:54:38.474511] 16
[2025-04-13 13:54:38.474511] 36
[2025-04-13 13:54:38.474511] 49
[2025-04-13 13:54:38.474511] 36
[2025-04-13 13:54:38.474511] 25
[2025-04-13 13:54:38.474511] 16
[2025-04-13 13:54:38.484510] 9
[2025-04-13 13:54:38.484510] 1
[2025-04-13 13:54:38.484510] 1
[2025-04-13 13:54:38.484510] 4
[2025-04-13 13:54:38.484510] 16
[2025-04-13 13:54:38.484510] 16
[2025-04-13 13:54:38.484510] 9
[2025-04-13 13:54:38.484510] 1
[2025-04-13 13:54:38.484510] 1
[2025-04-13 13:54:38.484510] 16
[2025-04-13 13:54:38.495154] 25
[2025-04-13 13:54:38.495154] 49
[2025-04-13 13:54:38.495154] 49
[2025-04-13 13:54:38.495154] 36
[2025-04-13 13:54:38.495154] 16
[2025-04-13 13:54:38.495154] 4
[2025-04-13 13:54:38.495154] 4
[2025-04-13 13:54:38.495154] 4
[2025-04-13 13:54:38.495154] 4
[2025-04-13 13:54:38.506141] 0
[2025-04-13 13:54:38.506141] 1
[2025-04-13 13:54:38.506141] 4
[2025-04-13 13:54:38.506141] 9
[2025-04-13 13:54:38.507160] 4
[2025-04-13 13:54:38.507160] 1
[2025-04-13 13:54:38.507160] 0
[2025-04-13 13:54:38.507160] 4
[2025-04-13 13:54:38.507160] 16
[2025-04-13 13:54:38.507160] 16
[2025-04-13 13:54:38.517224] 25
[2025-04-13 13:54:38.517224] 25
[2025-04-13 13:54:38.517224] 25
[2025-04-13 13:54:38.517224] 16
[2025-04-13 13:54:38.517224] 9
[2025-04-13 13:54:38.518256] 9
[2025-04-13 13:54:38.518256] 9
[2025-04-13 13:54:38.518256] 0
[2025-04-13 13:54:38.518256] 1
[2025-04-13 13:54:38.528223] 9
[2025-04-13 13:54:38.528223] 9
[2025-04-13 13:54:38.528223] 4
[2025-04-13 13:54:38.528223] 0
[2025-04-13 13:54:38.528223] 0
[2025-04-13 13:54:38.528223] 4
[2025-04-13 13:54:38.528223] 9
[2025-04-13 13:54:38.528223] 16
[2025-04-13 13:54:38.528223] 25
[2025-04-13 13:54:38.528223] 16
[2025-04-13 13:54:38.538976] 16
[2025-04-13 13:54:38.538976] 16
[2025-04-13 13:54:38.538976] 9
[2025-04-13 13:54:38.539880] 9
[2025-04-13 13:54:38.539880] 9
[2025-04-13 13:54:38.539880] 1
[2025-04-13 13:54:38.539880] 0
[2025-04-13 13:54:38.539880] 0
[2025-04-13 13:54:38.539880] 4
[2025-04-13 13:54:38.539880] 9
[2025-04-13 13:54:38.549846] 9
[2025-04-13 13:54:38.550837] 9
[2025-04-13 13:54:38.550837] 1
[2025-04-13 13:54:38.550837] 0
[2025-04-13 13:54:38.550837] 4
[2025-04-13 13:54:38.550837] 16
[2025-04-13 13:54:38.550837] 25
[2025-04-13 13:54:38.550837] 36
[2025-04-13 13:54:38.550837] 36
[2025-04-13 13:54:38.560724] 49
[2025-04-13 13:54:38.560724] 36
[2025-04-13 13:54:38.560724] 25
[2025-04-13 13:54:38.560724] 9
[2025-04-13 13:54:38.560724] 1
[2025-04-13 13:54:38.560724] 1
[2025-04-13 13:54:38.560724] 4
[2025-04-13 13:54:38.560724] 9
[2025-04-13 13:54:38.560724] 16
[2025-04-13 13:54:38.570876] 9
[2025-04-13 13:54:38.570876] 1
[2025-04-13 13:54:38.571730] 1
[2025-04-13 13:54:38.571730] 9
[2025-04-13 13:54:38.571730] 25
[2025-04-13 13:54:38.571730] 25
[2025-04-13 13:54:38.571730] 49
[2025-04-13 13:54:38.571730] 49
[2025-04-13 13:54:38.571730] 49
[2025-04-13 13:54:38.580375] 36
[2025-04-13 13:54:38.580375] 36
[2025-04-13 13:54:38.580375] 25
[2025-04-13 13:54:38.580375] 4
[2025-04-13 13:54:38.580375] 1
[2025-04-13 13:54:38.580375] 16
[2025-04-13 13:54:38.581436] 36
[2025-04-13 13:54:38.581436] 25
[2025-04-13 13:54:38.581436] 16
[2025-04-13 13:54:38.591069] 4
[2025-04-13 13:54:38.591069] 0
[2025-04-13 13:54:38.591069] 4
[2025-04-13 13:54:38.591069] 16
[2025-04-13 13:54:38.591069] 36
[2025-04-13 13:54:38.591069] 36
[2025-04-13 13:54:38.591069] 36
[2025-04-13 13:54:38.591069] 25
[2025-04-13 13:54:38.601935] 25
[2025-04-13 13:54:38.601935] 16
[2025-04-13 13:54:38.602944] 9
[2025-04-13 13:54:38.602944] 4
[2025-04-13 13:54:38.602944] 0
[2025-04-13 13:54:38.602944] 1
[2025-04-13 13:54:38.602944] 9
[2025-04-13 13:54:38.602944] 9
[2025-04-13 13:54:38.602944] 9
[2025-04-13 13:54:38.602944] 4
[2025-04-13 13:54:38.603925] 0
[2025-04-13 13:54:38.612848] 0
[2025-04-13 13:54:38.612848] 4
[2025-04-13 13:54:38.612848] 16
[2025-04-13 13:54:38.612848] 36
[2025-04-13 13:54:38.612848] 25
[2025-04-13 13:54:38.612848] 36
[2025-04-13 13:54:38.612848] 36
[2025-04-13 13:54:38.612848] 25
[2025-04-13 13:54:38.624954] 9
[2025-04-13 13:54:38.624954] 4
[2025-04-13 13:54:38.624954] 1
[2025-04-13 13:54:38.624954] 0
[2025-04-13 13:54:38.624954] 0
[2025-04-13 13:54:38.624954] 1
[2025-04-13 13:54:38.624954] 4
[2025-04-13 13:54:38.624954] 4
[2025-04-13 13:54:38.624954] 4
[2025-04-13 13:54:38.624954] 0
[2025-04-13 13:54:38.624954] 0
[2025-04-13 13:54:38.634573] 4
[2025-04-13 13:54:38.634573] 16
[2025-04-13 13:54:38.634573] 25
[2025-04-13 13:54:38.634573] 36
[2025-04-13 13:54:38.634573] 25
[2025-04-13 13:54:38.634573] 25
[2025-04-13 13:54:38.634573] 25
[2025-04-13 13:54:38.634573] 16
[2025-04-13 13:54:38.644059] 16
[2025-04-13 13:54:38.644059] 1
[2025-04-13 13:54:38.645059] 1
[2025-04-13 13:54:38.645059] 9
[2025-04-13 13:54:38.645059] 16
[2025-04-13 13:54:38.645059] 16
[2025-04-13 13:54:38.645059] 4
[2025-04-13 13:54:38.645059] 0
[2025-04-13 13:54:38.645059] 4
[2025-04-13 13:54:38.645059] 16
[2025-04-13 13:54:38.655106] 16
[2025-04-13 13:54:38.655106] 9
[2025-04-13 13:54:38.655106] 9
[2025-04-13 13:54:38.655106] 16
[2025-04-13 13:54:38.655106] 16
[2025-04-13 13:54:38.655106] 16
[2025-04-13 13:54:38.655106] 16
[2025-04-13 13:54:38.655106] 25
[2025-04-13 13:54:38.666754] 9
[2025-04-13 13:54:38.666754] 1
[2025-04-13 13:54:38.666754] 1
[2025-04-13 13:54:38.666754] 4
[2025-04-13 13:54:38.666754] 9
[2025-04-13 13:54:38.666754] 4
[2025-04-13 13:54:38.666754] 1
[2025-04-13 13:54:38.666754] 0
[2025-04-13 13:54:38.666754] 4
[2025-04-13 13:54:38.666754] 9
[2025-04-13 13:54:38.666754] 16
[2025-04-13 13:54:38.676828] 16
[2025-04-13 13:54:38.676828] 25
[2025-04-13 13:54:38.676828] 36
[2025-04-13 13:54:38.676828] 36
[2025-04-13 13:54:38.676828] 25
[2025-04-13 13:54:38.676828] 9
[2025-04-13 13:54:38.676828] 1
[2025-04-13 13:54:38.676828] 0
[2025-04-13 13:54:38.676828] 4
[2025-04-13 13:54:38.687829] 16
[2025-04-13 13:54:38.688688] 16
[2025-04-13 13:54:38.688688] 9
[2025-04-13 13:54:38.688688] 1
[2025-04-13 13:54:38.688688] 0
[2025-04-13 13:54:38.688688] 1
[2025-04-13 13:54:38.688688] 9
[2025-04-13 13:54:38.688688] 16
[2025-04-13 13:54:38.688688] 25
[2025-04-13 13:54:38.698183] 36
[2025-04-13 13:54:38.698183] 36
[2025-04-13 13:54:38.698183] 25
[2025-04-13 13:54:38.698183] 16
[2025-04-13 13:54:38.698183] 9
[2025-04-13 13:54:38.698183] 9
[2025-04-13 13:54:38.698183] 0
[2025-04-13 13:54:38.698183] 0
[2025-04-13 13:54:38.698183] 4
[2025-04-13 13:54:38.708181] 9
[2025-04-13 13:54:38.709182] 9
[2025-04-13 13:54:38.709182] 4
[2025-04-13 13:54:38.709182] 1
[2025-04-13 13:54:38.709182] 0
[2025-04-13 13:54:38.709182] 4
[2025-04-13 13:54:38.709182] 16
[2025-04-13 13:54:38.709182] 25
[2025-04-13 13:54:38.709182] 36
[2025-04-13 13:54:38.709182] 36
[2025-04-13 13:54:38.719956] 36
[2025-04-13 13:54:38.719956] 25
[2025-04-13 13:54:38.719956] 16
[2025-04-13 13:54:38.719956] 9
[2025-04-13 13:54:38.720957] 1
[2025-04-13 13:54:38.720957] 0
[2025-04-13 13:54:38.720957] 0
[2025-04-13 13:54:38.720957] 1
[2025-04-13 13:54:38.720957] 1
[2025-04-13 13:54:38.731435] 1
[2025-04-13 13:54:38.731435] 1
[2025-04-13 13:54:38.731435] 0
[2025-04-13 13:54:38.731435] 0
[2025-04-13 13:54:38.731435] 1
[2025-04-13 13:54:38.731435] 4
[2025-04-13 13:54:38.731435] 9
[2025-04-13 13:54:38.731435] 16
[2025-04-13 13:54:38.731435] 25
[2025-04-13 13:54:38.731435] 25
[2025-04-13 13:54:38.741292] 25
[2025-04-13 13:54:38.741292] 25
[2025-04-13 13:54:38.741292] 16
[2025-04-13 13:54:38.741292] 4
[2025-04-13 13:54:38.742323] 1
[2025-04-13 13:54:38.742323] 0
[2025-04-13 13:54:38.742323] 4
[2025-04-13 13:54:38.742323] 9
[2025-04-13 13:54:38.742323] 9
[2025-04-13 13:54:38.742323] 4
[2025-04-13 13:54:38.753345] 0
[2025-04-13 13:54:38.753345] 1
[2025-04-13 13:54:38.753345] 9
[2025-04-13 13:54:38.753345] 25
[2025-04-13 13:54:38.753345] 36
[2025-04-13 13:54:38.753345] 36
[2025-04-13 13:54:38.753345] 25
[2025-04-13 13:54:38.753345] 9
[2025-04-13 13:54:38.753345] 9
[2025-04-13 13:54:38.764465] 9
[2025-04-13 13:54:38.764465] 9
[2025-04-13 13:54:38.764465] 4
[2025-04-13 13:54:38.764465] 0
[2025-04-13 13:54:38.764465] 4
[2025-04-13 13:54:38.764465] 9
[2025-04-13 13:54:38.764465] 9
[2025-04-13 13:54:38.764465] 4
[2025-04-13 13:54:38.764465] 0
[2025-04-13 13:54:38.764465] 0
[2025-04-13 13:54:38.764465] 4
[2025-04-13 13:54:38.774835] 9
[2025-04-13 13:54:38.774835] 16
[2025-04-13 13:54:38.774835] 36
[2025-04-13 13:54:38.774835] 36
[2025-04-13 13:54:38.774835] 25
[2025-04-13 13:54:38.775373] 16
[2025-04-13 13:54:38.775373] 16
[2025-04-13 13:54:38.775373] 9
[2025-04-13 13:54:38.785528] 1
[2025-04-13 13:54:38.786530] 0
[2025-04-13 13:54:38.786530] 4
[2025-04-13 13:54:38.786530] 9
[2025-04-13 13:54:38.786530] 9
[2025-04-13 13:54:38.786530] 4
[2025-04-13 13:54:38.786530] 0
[2025-04-13 13:54:38.786530] 0
[2025-04-13 13:54:38.786530] 4
[2025-04-13 13:54:38.787529] 9
[2025-04-13 13:54:38.787529] 16
[2025-04-13 13:54:38.796751] 36
[2025-04-13 13:54:38.796751] 49
[2025-04-13 13:54:38.796751] 64
[2025-04-13 13:54:38.796751] 49
[2025-04-13 13:54:38.797726] 25
[2025-04-13 13:54:38.797726] 9
[2025-04-13 13:54:38.797726] 0
[2025-04-13 13:54:38.797726] 4
[2025-04-13 13:54:38.807060] 16
[2025-04-13 13:54:38.807060] 25
[2025-04-13 13:54:38.807060] 25
[2025-04-13 13:54:38.807060] 16
[2025-04-13 13:54:38.807060] 1
[2025-04-13 13:54:38.807060] 1
[2025-04-13 13:54:38.807060] 16
[2025-04-13 13:54:38.807060] 25
[2025-04-13 13:54:38.807060] 36
[2025-04-13 13:54:38.816821] 36
[2025-04-13 13:54:38.816821] 25
[2025-04-13 13:54:38.816821] 25
[2025-04-13 13:54:38.816821] 16
[2025-04-13 13:54:38.817782] 9
[2025-04-13 13:54:38.817782] 16
[2025-04-13 13:54:38.817782] 4
[2025-04-13 13:54:38.817782] 1
[2025-04-13 13:54:38.817782] 0
[2025-04-13 13:54:38.827811] 4
[2025-04-13 13:54:38.827811] 9
[2025-04-13 13:54:38.827811] 16
[2025-04-13 13:54:38.827811] 9
[2025-04-13 13:54:38.827811] 1
[2025-04-13 13:54:38.827811] 0
[2025-04-13 13:54:38.827811] 4
[2025-04-13 13:54:38.827811] 9
[2025-04-13 13:54:38.827811] 16
[2025-04-13 13:54:38.827811] 16
[2025-04-13 13:54:38.838077] 25
[2025-04-13 13:54:38.838077] 25
[2025-04-13 13:54:38.838077] 25
[2025-04-13 13:54:38.838077] 25
[2025-04-13 13:54:38.838077] 16
[2025-04-13 13:54:38.838077] 9
[2025-04-13 13:54:38.838077] 0
[2025-04-13 13:54:38.838077] 0
[2025-04-13 13:54:38.839150] 4
[2025-04-13 13:54:38.849528] 9
[2025-04-13 13:54:38.849528] 9
[2025-04-13 13:54:38.849528] 9
[2025-04-13 13:54:38.849528] 1
[2025-04-13 13:54:38.849528] 1
[2025-04-13 13:54:38.849528] 9
[2025-04-13 13:54:38.849528] 16
[2025-04-13 13:54:38.849528] 25
[2025-04-13 13:54:38.849528] 49
[2025-04-13 13:54:38.858674] 49
[2025-04-13 13:54:38.858674] 36
[2025-04-13 13:54:38.858674] 36
[2025-04-13 13:54:38.858674] 25
[2025-04-13 13:54:38.858674] 16
[2025-04-13 13:54:38.858674] 1
[2025-04-13 13:54:38.858674] 1
[2025-04-13 13:54:38.859533] 16
[2025-04-13 13:54:38.859533] 25
[2025-04-13 13:54:38.869236] 25
[2025-04-13 13:54:38.869236] 9
[2025-04-13 13:54:38.869236] 1
[2025-04-13 13:54:38.869236] 1
[2025-04-13 13:54:38.869236] 16
[2025-04-13 13:54:38.869236] 25
[2025-04-13 13:54:38.869236] 36
[2025-04-13 13:54:38.869236] 36
[2025-04-13 13:54:38.880240] 49
[2025-04-13 13:54:38.880240] 25
[2025-04-13 13:54:38.880240] 25
[2025-04-13 13:54:38.880240] 9
[2025-04-13 13:54:38.880240] 9
[2025-04-13 13:54:38.880240] 1
[2025-04-13 13:54:38.881249] 0
[2025-04-13 13:54:38.881249] 1
[2025-04-13 13:54:38.881249] 4
[2025-04-13 13:54:38.881249] 4
[2025-04-13 13:54:38.890765] 4
[2025-04-13 13:54:38.890765] 9
[2025-04-13 13:54:38.890765] 4
[2025-04-13 13:54:38.890765] 1
[2025-04-13 13:54:38.891461] 1
[2025-04-13 13:54:38.891461] 16
[2025-04-13 13:54:38.891461] 36
[2025-04-13 13:54:38.891461] 49
[2025-04-13 13:54:38.891461] 64
[2025-04-13 13:54:38.900504] 49
[2025-04-13 13:54:38.900504] 36
[2025-04-13 13:54:38.900504] 25
[2025-04-13 13:54:38.900504] 16
[2025-04-13 13:54:38.901559] 4
[2025-04-13 13:54:38.901559] 0
[2025-04-13 13:54:38.901559] 4
[2025-04-13 13:54:38.901559] 16
[2025-04-13 13:54:38.901559] 16
[2025-04-13 13:54:38.911667] 16
[2025-04-13 13:54:38.911667] 1
[2025-04-13 13:54:38.911667] 0
[2025-04-13 13:54:38.911667] 4
[2025-04-13 13:54:38.911667] 16
[2025-04-13 13:54:38.911667] 25
[2025-04-13 13:54:38.911667] 36
[2025-04-13 13:54:38.911667] 36
[2025-04-13 13:54:38.911667] 25
[2025-04-13 13:54:38.921835] 16
[2025-04-13 13:54:38.921835] 16
[2025-04-13 13:54:38.921835] 4
[2025-04-13 13:54:38.922676] 1
[2025-04-13 13:54:38.922676] 0
[2025-04-13 13:54:38.922676] 4
[2025-04-13 13:54:38.922676] 16
[2025-04-13 13:54:38.922676] 16
[2025-04-13 13:54:38.922676] 16
[2025-04-13 13:54:38.931478] 4
[2025-04-13 13:54:38.931478] 0
[2025-04-13 13:54:38.931478] 4
[2025-04-13 13:54:38.931478] 16
[2025-04-13 13:54:38.931478] 25
[2025-04-13 13:54:38.931478] 36
[2025-04-13 13:54:38.931478] 36
[2025-04-13 13:54:38.931478] 49
[2025-04-13 13:54:38.931478] 49
[2025-04-13 13:54:38.941672] 36
[2025-04-13 13:54:38.941672] 25
[2025-04-13 13:54:38.941672] 9
[2025-04-13 13:54:38.941672] 1
[2025-04-13 13:54:38.941672] 1
[2025-04-13 13:54:38.941672] 16
[2025-04-13 13:54:38.941672] 25
[2025-04-13 13:54:38.941672] 16
[2025-04-13 13:54:38.941672] 9
[2025-04-13 13:54:38.951678] 1
[2025-04-13 13:54:38.951678] 0
[2025-04-13 13:54:38.951678] 9
[2025-04-13 13:54:38.951678] 25
[2025-04-13 13:54:38.951678] 36
[2025-04-13 13:54:38.951678] 36
[2025-04-13 13:54:38.951678] 25
[2025-04-13 13:54:38.951678] 25
[2025-04-13 13:54:38.963226] 16
[2025-04-13 13:54:38.963226] 16
[2025-04-13 13:54:38.963226] 16
[2025-04-13 13:54:38.963226] 1
[2025-04-13 13:54:38.963226] 1
[2025-04-13 13:54:38.963226] 9
[2025-04-13 13:54:38.963226] 16
[2025-04-13 13:54:38.963854] 9
[2025-04-13 13:54:38.963854] 4
[2025-04-13 13:54:38.963854] 0
[2025-04-13 13:54:38.972226] 0
[2025-04-13 13:54:38.972226] 4
[2025-04-13 13:54:38.972226] 9
[2025-04-13 13:54:38.972226] 16
[2025-04-13 13:54:38.972226] 25
[2025-04-13 13:54:38.973270] 36
[2025-04-13 13:54:38.973270] 36
[2025-04-13 13:54:38.973270] 36
[2025-04-13 13:54:38.973270] 25
[2025-04-13 13:54:38.984418] 16
[2025-04-13 13:54:38.984418] 4
[2025-04-13 13:54:38.984418] 0
[2025-04-13 13:54:38.985411] 0
[2025-04-13 13:54:38.985411] 4
[2025-04-13 13:54:38.985411] 4
[2025-04-13 13:54:38.985411] 4
[2025-04-13 13:54:38.985411] 4
[2025-04-13 13:54:38.985411] 0
[2025-04-13 13:54:38.986430] 1
[2025-04-13 13:54:38.995215] 9
[2025-04-13 13:54:38.995215] 9
[2025-04-13 13:54:38.995215] 16
[2025-04-13 13:54:38.995215] 25
[2025-04-13 13:54:38.995215] 16
[2025-04-13 13:54:38.995215] 16
[2025-04-13 13:54:38.995215] 9
[2025-04-13 13:54:38.995215] 16
[2025-04-13 13:54:38.995215] 4
[2025-04-13 13:54:39.006735] 1
[2025-04-13 13:54:39.006735] 1
[2025-04-13 13:54:39.006735] 1
[2025-04-13 13:54:39.006735] 4
[2025-04-13 13:54:39.006735] 1
[2025-04-13 13:54:39.006735] 0
[2025-04-13 13:54:39.006735] 0
[2025-04-13 13:54:39.006735] 1
[2025-04-13 13:54:39.006735] 4
[2025-04-13 13:54:39.006735] 9
[2025-04-13 13:54:39.016786] 16
[2025-04-13 13:54:39.016786] 16
[2025-04-13 13:54:39.016786] 25
[2025-04-13 13:54:39.016786] 25
[2025-04-13 13:54:39.016786] 16
[2025-04-13 13:54:39.016786] 9
[2025-04-13 13:54:39.016786] 9
[2025-04-13 13:54:39.016786] 0
[2025-04-13 13:54:39.016786] 0
[2025-04-13 13:54:39.017784] 1
[2025-04-13 13:54:39.028290] 9
[2025-04-13 13:54:39.028290] 9
[2025-04-13 13:54:39.028290] 9
[2025-04-13 13:54:39.028290] 4
[2025-04-13 13:54:39.028290] 0
[2025-04-13 13:54:39.028290] 1
[2025-04-13 13:54:39.028290] 9
[2025-04-13 13:54:39.028290] 16
[2025-04-13 13:54:39.028290] 36
[2025-04-13 13:54:39.039529] 36
[2025-04-13 13:54:39.039529] 36
[2025-04-13 13:54:39.039529] 25
[2025-04-13 13:54:39.039529] 16
[2025-04-13 13:54:39.039529] 9
[2025-04-13 13:54:39.039529] 4
[2025-04-13 13:54:39.039529] 0
[2025-04-13 13:54:39.039529] 1
[2025-04-13 13:54:39.040419] 4
[2025-04-13 13:54:39.040419] 9
[2025-04-13 13:54:39.049392] 9
[2025-04-13 13:54:39.049392] 4
[2025-04-13 13:54:39.049392] 0
[2025-04-13 13:54:39.049392] 1
[2025-04-13 13:54:39.050386] 9
[2025-04-13 13:54:39.050386] 16
[2025-04-13 13:54:39.050386] 25
[2025-04-13 13:54:39.050386] 36
[2025-04-13 13:54:39.050386] 36
[2025-04-13 13:54:39.059941] 49
[2025-04-13 13:54:39.059941] 36
[2025-04-13 13:54:39.060963] 16
[2025-04-13 13:54:39.060963] 1
[2025-04-13 13:54:39.060963] 1
[2025-04-13 13:54:39.060963] 4
[2025-04-13 13:54:39.060963] 4
[2025-04-13 13:54:39.060963] 16
[2025-04-13 13:54:39.060963] 9
[2025-04-13 13:54:39.060963] 4
[2025-04-13 13:54:39.069997] 1
[2025-04-13 13:54:39.071000] 1
[2025-04-13 13:54:39.071000] 9
[2025-04-13 13:54:39.071000] 25
[2025-04-13 13:54:39.071000] 36
[2025-04-13 13:54:39.071000] 49
[2025-04-13 13:54:39.071000] 36
[2025-04-13 13:54:39.071000] 36
[2025-04-13 13:54:39.082101] 16
[2025-04-13 13:54:39.082101] 9
[2025-04-13 13:54:39.082101] 9
[2025-04-13 13:54:39.082101] 4
[2025-04-13 13:54:39.082101] 1
[2025-04-13 13:54:39.082101] 0
[2025-04-13 13:54:39.082101] 9
[2025-04-13 13:54:39.082101] 16
[2025-04-13 13:54:39.082101] 16
[2025-04-13 13:54:39.083088] 9
[2025-04-13 13:54:39.091676] 1
[2025-04-13 13:54:39.092705] 1
[2025-04-13 13:54:39.092705] 9
[2025-04-13 13:54:39.092705] 9
[2025-04-13 13:54:39.092705] 9
[2025-04-13 13:54:39.092705] 9
[2025-04-13 13:54:39.092705] 16
[2025-04-13 13:54:39.092705] 16
[2025-04-13 13:54:39.092705] 16
[2025-04-13 13:54:39.092705] 25
[2025-04-13 13:54:39.103784] 25
[2025-04-13 13:54:39.103784] 16
[2025-04-13 13:54:39.103784] 4
[2025-04-13 13:54:39.103784] 0
[2025-04-13 13:54:39.103784] 4
[2025-04-13 13:54:39.103784] 9
[2025-04-13 13:54:39.104682] 9
[2025-04-13 13:54:39.104682] 1
[2025-04-13 13:54:39.104682] 0
[2025-04-13 13:54:39.104682] 4
[2025-04-13 13:54:39.114163] 16
[2025-04-13 13:54:39.114163] 16
[2025-04-13 13:54:39.114163] 25
[2025-04-13 13:54:39.114163] 36
[2025-04-13 13:54:39.114163] 36
[2025-04-13 13:54:39.114163] 25
[2025-04-13 13:54:39.114163] 16
[2025-04-13 13:54:39.114163] 4
[2025-04-13 13:54:39.125317] 0
[2025-04-13 13:54:39.125317] 1
[2025-04-13 13:54:39.125317] 4
[2025-04-13 13:54:39.125317] 9
[2025-04-13 13:54:39.125317] 16
[2025-04-13 13:54:39.125317] 9
[2025-04-13 13:54:39.125317] 1
[2025-04-13 13:54:39.125317] 0
[2025-04-13 13:54:39.125317] 4
[2025-04-13 13:54:39.125317] 9
[2025-04-13 13:54:39.134973] 25
[2025-04-13 13:54:39.134973] 25
[2025-04-13 13:54:39.134973] 49
[2025-04-13 13:54:39.134973] 49
[2025-04-13 13:54:39.134973] 49
[2025-04-13 13:54:39.134973] 36
[2025-04-13 13:54:39.134973] 16
[2025-04-13 13:54:39.134973] 1
[2025-04-13 13:54:39.134973] 0
[2025-04-13 13:54:39.147131] 0
[2025-04-13 13:54:39.147131] 4
[2025-04-13 13:54:39.147131] 9
[2025-04-13 13:54:39.147131] 9
[2025-04-13 13:54:39.147131] 9
[2025-04-13 13:54:39.147131] 1
[2025-04-13 13:54:39.147131] 0
[2025-04-13 13:54:39.147131] 1
[2025-04-13 13:54:39.147131] 9
[2025-04-13 13:54:39.147131] 25
[2025-04-13 13:54:39.155982] 25
[2025-04-13 13:54:39.155982] 49
[2025-04-13 13:54:39.156980] 64
[2025-04-13 13:54:39.156980] 64
[2025-04-13 13:54:39.156980] 49
[2025-04-13 13:54:39.156980] 25
[2025-04-13 13:54:39.156980] 1
[2025-04-13 13:54:39.156980] 1
[2025-04-13 13:54:39.156980] 9
[2025-04-13 13:54:39.167817] 16
[2025-04-13 13:54:39.167817] 16
[2025-04-13 13:54:39.167817] 9
[2025-04-13 13:54:39.167817] 1
[2025-04-13 13:54:39.167817] 0
[2025-04-13 13:54:39.167817] 1
[2025-04-13 13:54:39.167817] 4
[2025-04-13 13:54:39.167817] 16
[2025-04-13 13:54:39.167817] 25
[2025-04-13 13:54:39.177823] 25
[2025-04-13 13:54:39.177823] 25
[2025-04-13 13:54:39.177823] 36
[2025-04-13 13:54:39.177823] 25
[2025-04-13 13:54:39.177823] 16
[2025-04-13 13:54:39.177823] 9
[2025-04-13 13:54:39.177823] 4
[2025-04-13 13:54:39.177823] 0
[2025-04-13 13:54:39.177823] 4
[2025-04-13 13:54:39.188628] 9
[2025-04-13 13:54:39.188628] 16
[2025-04-13 13:54:39.188628] 9
[2025-04-13 13:54:39.188628] 4
[2025-04-13 13:54:39.188628] 0
[2025-04-13 13:54:39.188628] 1
[2025-04-13 13:54:39.188628] 9
[2025-04-13 13:54:39.188628] 16
[2025-04-13 13:54:39.188628] 36
[2025-04-13 13:54:39.199766] 36
[2025-04-13 13:54:39.199766] 36
[2025-04-13 13:54:39.199766] 25
[2025-04-13 13:54:39.199766] 16
[2025-04-13 13:54:39.199766] 4
[2025-04-13 13:54:39.199766] 1
[2025-04-13 13:54:39.199766] 1
[2025-04-13 13:54:39.199766] 0
[2025-04-13 13:54:39.199766] 4
[2025-04-13 13:54:39.199766] 9
[2025-04-13 13:54:39.209907] 4
[2025-04-13 13:54:39.209907] 1
[2025-04-13 13:54:39.209907] 0
[2025-04-13 13:54:39.209907] 0
[2025-04-13 13:54:39.209907] 9
[2025-04-13 13:54:39.209907] 16
[2025-04-13 13:54:39.210796] 25
[2025-04-13 13:54:39.210796] 25
[2025-04-13 13:54:39.210796] 25
[2025-04-13 13:54:39.221390] 25
[2025-04-13 13:54:39.221390] 16
[2025-04-13 13:54:39.221390] 16
[2025-04-13 13:54:39.221390] 9
[2025-04-13 13:54:39.221390] 1
[2025-04-13 13:54:39.221390] 0
[2025-04-13 13:54:39.221390] 4
[2025-04-13 13:54:39.221390] 9
[2025-04-13 13:54:39.221390] 9
[2025-04-13 13:54:39.222449] 4
[2025-04-13 13:54:39.231075] 0
[2025-04-13 13:54:39.231075] 0
[2025-04-13 13:54:39.231075] 4
[2025-04-13 13:54:39.231429] 16
[2025-04-13 13:54:39.231429] 25
[2025-04-13 13:54:39.231429] 36
[2025-04-13 13:54:39.231429] 36
[2025-04-13 13:54:39.231429] 36
[2025-04-13 13:54:39.232435] 25
[2025-04-13 13:54:39.241523] 16
[2025-04-13 13:54:39.241523] 16
[2025-04-13 13:54:39.241523] 4
[2025-04-13 13:54:39.242506] 0
[2025-04-13 13:54:39.242506] 1
[2025-04-13 13:54:39.242506] 4
[2025-04-13 13:54:39.242506] 16
[2025-04-13 13:54:39.242506] 16
[2025-04-13 13:54:39.242506] 9
[2025-04-13 13:54:39.251544] 1
[2025-04-13 13:54:39.251544] 0
[2025-04-13 13:54:39.251544] 9
[2025-04-13 13:54:39.251544] 16
[2025-04-13 13:54:39.252537] 25
[2025-04-13 13:54:39.252537] 25
[2025-04-13 13:54:39.252537] 36
[2025-04-13 13:54:39.252537] 36
[2025-04-13 13:54:39.252537] 25
[2025-04-13 13:54:39.262537] 16
[2025-04-13 13:54:39.262537] 16
[2025-04-13 13:54:39.262537] 1
[2025-04-13 13:54:39.262537] 0
[2025-04-13 13:54:39.262537] 4
[2025-04-13 13:54:39.263578] 9
[2025-04-13 13:54:39.263578] 9
[2025-04-13 13:54:39.263578] 4
[2025-04-13 13:54:39.263578] 1
[2025-04-13 13:54:39.263578] 0
[2025-04-13 13:54:39.273445] 1
[2025-04-13 13:54:39.273445] 4
[2025-04-13 13:54:39.273445] 16
[2025-04-13 13:54:39.273445] 36
[2025-04-13 13:54:39.273445] 49
[2025-04-13 13:54:39.273445] 49
[2025-04-13 13:54:39.273445] 36
[2025-04-13 13:54:39.273983] 36
[2025-04-13 13:54:39.282989] 16
[2025-04-13 13:54:39.282989] 4
[2025-04-13 13:54:39.284022] 0
[2025-04-13 13:54:39.284022] 4
[2025-04-13 13:54:39.284022] 16
[2025-04-13 13:54:39.284022] 25
[2025-04-13 13:54:39.284022] 25
[2025-04-13 13:54:39.284022] 9
[2025-04-13 13:54:39.284022] 0
[2025-04-13 13:54:39.284022] 4
[2025-04-13 13:54:39.293615] 16
[2025-04-13 13:54:39.293615] 16
[2025-04-13 13:54:39.293615] 25
[2025-04-13 13:54:39.294474] 25
[2025-04-13 13:54:39.294474] 49
[2025-04-13 13:54:39.294474] 36
[2025-04-13 13:54:39.294474] 25
[2025-04-13 13:54:39.294474] 9
[2025-04-13 13:54:39.305474] 4
[2025-04-13 13:54:39.305474] 1
[2025-04-13 13:54:39.305474] 0
[2025-04-13 13:54:39.305474] 1
[2025-04-13 13:54:39.305474] 1
[2025-04-13 13:54:39.305474] 9
[2025-04-13 13:54:39.305474] 9
[2025-04-13 13:54:39.305474] 1
[2025-04-13 13:54:39.305474] 0
[2025-04-13 13:54:39.305474] 1
[2025-04-13 13:54:39.305474] 9
[2025-04-13 13:54:39.315880] 25
[2025-04-13 13:54:39.315880] 36
[2025-04-13 13:54:39.315880] 36
[2025-04-13 13:54:39.315880] 36
[2025-04-13 13:54:39.315880] 36
[2025-04-13 13:54:39.315880] 16
[2025-04-13 13:54:39.315880] 9
[2025-04-13 13:54:39.315880] 4
[2025-04-13 13:54:39.325887] 0
[2025-04-13 13:54:39.325887] 4
[2025-04-13 13:54:39.325887] 16
[2025-04-13 13:54:39.325887] 25
[2025-04-13 13:54:39.325887] 16
[2025-04-13 13:54:39.325887] 4
[2025-04-13 13:54:39.325887] 0
[2025-04-13 13:54:39.325887] 1
[2025-04-13 13:54:39.325887] 16
[2025-04-13 13:54:39.335673] 25
[2025-04-13 13:54:39.336607] 36
[2025-04-13 13:54:39.336607] 36
[2025-04-13 13:54:39.336607] 25
[2025-04-13 13:54:39.336607] 25
[2025-04-13 13:54:39.336607] 25
[2025-04-13 13:54:39.336607] 16
[2025-04-13 13:54:39.336607] 4
[2025-04-13 13:54:39.336607] 0
[2025-04-13 13:54:39.346545] 1
[2025-04-13 13:54:39.346545] 16
[2025-04-13 13:54:39.346545] 25
[2025-04-13 13:54:39.347532] 16
[2025-04-13 13:54:39.347532] 9
[2025-04-13 13:54:39.347532] 0
[2025-04-13 13:54:39.347532] 4
[2025-04-13 13:54:39.347532] 16
[2025-04-13 13:54:39.347532] 25
[2025-04-13 13:54:39.355823] 25
[2025-04-13 13:54:39.355823] 36
[2025-04-13 13:54:39.355823] 25
[2025-04-13 13:54:39.355823] 25
[2025-04-13 13:54:39.356795] 25
[2025-04-13 13:54:39.356795] 16
[2025-04-13 13:54:39.356795] 9
[2025-04-13 13:54:39.356795] 4
[2025-04-13 13:54:39.356795] 0
[2025-04-13 13:54:39.366984] 1
[2025-04-13 13:54:39.367841] 4
[2025-04-13 13:54:39.367841] 9
[2025-04-13 13:54:39.367841] 4
[2025-04-13 13:54:39.367841] 4
[2025-04-13 13:54:39.367841] 0
[2025-04-13 13:54:39.367841] 1
[2025-04-13 13:54:39.367841] 9
[2025-04-13 13:54:39.367841] 25
[2025-04-13 13:54:39.368888] 25
[2025-04-13 13:54:39.377864] 36
[2025-04-13 13:54:39.377864] 36
[2025-04-13 13:54:39.377864] 25
[2025-04-13 13:54:39.377864] 16
[2025-04-13 13:54:39.377864] 16
[2025-04-13 13:54:39.377864] 4
[2025-04-13 13:54:39.377864] 0
[2025-04-13 13:54:39.377864] 1
[2025-04-13 13:54:39.377864] 4
[2025-04-13 13:54:39.388858] 16
[2025-04-13 13:54:39.388858] 9
[2025-04-13 13:54:39.388858] 4
[2025-04-13 13:54:39.388858] 1
[2025-04-13 13:54:39.389860] 1
[2025-04-13 13:54:39.389860] 4
[2025-04-13 13:54:39.389860] 9
[2025-04-13 13:54:39.389860] 25
[2025-04-13 13:54:39.389860] 25
[2025-04-13 13:54:39.399238] 36
[2025-04-13 13:54:39.399238] 36
[2025-04-13 13:54:39.399238] 25
[2025-04-13 13:54:39.399238] 16
[2025-04-13 13:54:39.399238] 9
[2025-04-13 13:54:39.399238] 4
[2025-04-13 13:54:39.399238] 0
[2025-04-13 13:54:39.400237] 9
[2025-04-13 13:54:39.400237] 36
[2025-04-13 13:54:39.408236] 36
[2025-04-13 13:54:39.408236] 16
[2025-04-13 13:54:39.409236] 1
[2025-04-13 13:54:39.409236] 4
[2025-04-13 13:54:39.409236] 25
[2025-04-13 13:54:39.409236] 36
[2025-04-13 13:54:39.409236] 36
[2025-04-13 13:54:39.409236] 36
[2025-04-13 13:54:39.409236] 25
[2025-04-13 13:54:39.420380] 9
[2025-04-13 13:54:39.420380] 9
[2025-04-13 13:54:39.420380] 9
[2025-04-13 13:54:39.420380] 9
[2025-04-13 13:54:39.420380] 4
[2025-04-13 13:54:39.420380] 1
[2025-04-13 13:54:39.420380] 0
[2025-04-13 13:54:39.420380] 9
[2025-04-13 13:54:39.420380] 16
[2025-04-13 13:54:39.420380] 16
[2025-04-13 13:54:39.430383] 9
[2025-04-13 13:54:39.430383] 1
[2025-04-13 13:54:39.430383] 1
[2025-04-13 13:54:39.431242] 9
[2025-04-13 13:54:39.431242] 25
[2025-04-13 13:54:39.431242] 25
[2025-04-13 13:54:39.431242] 49
[2025-04-13 13:54:39.431242] 49
[2025-04-13 13:54:39.431242] 36
[2025-04-13 13:54:39.442651] 16
[2025-04-13 13:54:39.442651] 9
[2025-04-13 13:54:39.442651] 4
[2025-04-13 13:54:39.442651] 1
[2025-04-13 13:54:39.442651] 0
[2025-04-13 13:54:39.443690] 1
[2025-04-13 13:54:39.443690] 4
[2025-04-13 13:54:39.443690] 4
[2025-04-13 13:54:39.443690] 4
[2025-04-13 13:54:39.443690] 1
[2025-04-13 13:54:39.451802] 1
[2025-04-13 13:54:39.452741] 9
[2025-04-13 13:54:39.452741] 16
[2025-04-13 13:54:39.452741] 16
[2025-04-13 13:54:39.452741] 25
[2025-04-13 13:54:39.452741] 25
[2025-04-13 13:54:39.452741] 25
[2025-04-13 13:54:39.452741] 25
[2025-04-13 13:54:39.464772] 16
[2025-04-13 13:54:39.464772] 4
[2025-04-13 13:54:39.464772] 0
[2025-04-13 13:54:39.464772] 1
[2025-04-13 13:54:39.464772] 1
[2025-04-13 13:54:39.464772] 9
[2025-04-13 13:54:39.464772] 9
[2025-04-13 13:54:39.464772] 4
[2025-04-13 13:54:39.464772] 1
[2025-04-13 13:54:39.464772] 0
[2025-04-13 13:54:39.464772] 4
[2025-04-13 13:54:39.474036] 16
[2025-04-13 13:54:39.474036] 16
[2025-04-13 13:54:39.474036] 25
[2025-04-13 13:54:39.474036] 25
[2025-04-13 13:54:39.474036] 36
[2025-04-13 13:54:39.474036] 25
[2025-04-13 13:54:39.474036] 16
[2025-04-13 13:54:39.474036] 16
[2025-04-13 13:54:39.485263] 4
[2025-04-13 13:54:39.485263] 0
[2025-04-13 13:54:39.485263] 4
[2025-04-13 13:54:39.485263] 9
[2025-04-13 13:54:39.485263] 16
[2025-04-13 13:54:39.485263] 16
[2025-04-13 13:54:39.485263] 9
[2025-04-13 13:54:39.485263] 1
[2025-04-13 13:54:39.485263] 1
[2025-04-13 13:54:39.485263] 9
[2025-04-13 13:54:39.494268] 25
[2025-04-13 13:54:39.494268] 36
[2025-04-13 13:54:39.494268] 49
[2025-04-13 13:54:39.494268] 49
[2025-04-13 13:54:39.494268] 36
[2025-04-13 13:54:39.494268] 25
[2025-04-13 13:54:39.495301] 16
[2025-04-13 13:54:39.496270] 16
[2025-04-13 13:54:39.505269] 4
[2025-04-13 13:54:39.505269] 0
[2025-04-13 13:54:39.505269] 9
[2025-04-13 13:54:39.505269] 16
[2025-04-13 13:54:39.505269] 25
[2025-04-13 13:54:39.505269] 16
[2025-04-13 13:54:39.505269] 4
[2025-04-13 13:54:39.505269] 0
[2025-04-13 13:54:39.505269] 9
[2025-04-13 13:54:39.515045] 25
[2025-04-13 13:54:39.515045] 49
[2025-04-13 13:54:39.515045] 49
[2025-04-13 13:54:39.515906] 49
[2025-04-13 13:54:39.515906] 25
[2025-04-13 13:54:39.515906] 16
[2025-04-13 13:54:39.515906] 9
[2025-04-13 13:54:39.515906] 4
[2025-04-13 13:54:39.515906] 1
[2025-04-13 13:54:39.525941] 0
[2025-04-13 13:54:39.525941] 4
[2025-04-13 13:54:39.525941] 16
[2025-04-13 13:54:39.525941] 16
[2025-04-13 13:54:39.525941] 16
[2025-04-13 13:54:39.525941] 4
[2025-04-13 13:54:39.525941] 0
[2025-04-13 13:54:39.525941] 4
[2025-04-13 13:54:39.525941] 25
[2025-04-13 13:54:39.535706] 36
[2025-04-13 13:54:39.535706] 36
[2025-04-13 13:54:39.536712] 36
[2025-04-13 13:54:39.536712] 25
[2025-04-13 13:54:39.536712] 36
[2025-04-13 13:54:39.536712] 25
[2025-04-13 13:54:39.536712] 16
[2025-04-13 13:54:39.536712] 9
[2025-04-13 13:54:39.536712] 1
[2025-04-13 13:54:39.546746] 1
[2025-04-13 13:54:39.546746] 4
[2025-04-13 13:54:39.546746] 16
[2025-04-13 13:54:39.546746] 16
[2025-04-13 13:54:39.546746] 9
[2025-04-13 13:54:39.546746] 4
[2025-04-13 13:54:39.546746] 0
[2025-04-13 13:54:39.546746] 1
[2025-04-13 13:54:39.546746] 9
[2025-04-13 13:54:39.546746] 25
[2025-04-13 13:54:39.556714] 36
[2025-04-13 13:54:39.556714] 36
[2025-04-13 13:54:39.556714] 36
[2025-04-13 13:54:39.556714] 36
[2025-04-13 13:54:39.556714] 25
[2025-04-13 13:54:39.556714] 9
[2025-04-13 13:54:39.556714] 1
[2025-04-13 13:54:39.556714] 0
[2025-04-13 13:54:39.556714] 4
[2025-04-13 13:54:39.567968] 9
[2025-04-13 13:54:39.567968] 9
[2025-04-13 13:54:39.567968] 1
[2025-04-13 13:54:39.567968] 0
[2025-04-13 13:54:39.567968] 0
[2025-04-13 13:54:39.567968] 4
[2025-04-13 13:54:39.567968] 9
[2025-04-13 13:54:39.567968] 25
[2025-04-13 13:54:39.567968] 25
[2025-04-13 13:54:39.578976] 49
[2025-04-13 13:54:39.578976] 49
[2025-04-13 13:54:39.578976] 36
[2025-04-13 13:54:39.578976] 9
[2025-04-13 13:54:39.578976] 1
[2025-04-13 13:54:39.579968] 0
[2025-04-13 13:54:39.579968] 1
[2025-04-13 13:54:39.579968] 1
[2025-04-13 13:54:39.579968] 4
[2025-04-13 13:54:39.579968] 9
[2025-04-13 13:54:39.591456] 9
[2025-04-13 13:54:39.591456] 1
[2025-04-13 13:54:39.592382] 0
[2025-04-13 13:54:39.592382] 0
[2025-04-13 13:54:39.592382] 4
[2025-04-13 13:54:39.592382] 16
[2025-04-13 13:54:39.592382] 16
[2025-04-13 13:54:39.592382] 36
[2025-04-13 13:54:39.592382] 49
[2025-04-13 13:54:39.600347] 36
[2025-04-13 13:54:39.600347] 25
[2025-04-13 13:54:39.600347] 25
[2025-04-13 13:54:39.600347] 16
[2025-04-13 13:54:39.600347] 4
[2025-04-13 13:54:39.600347] 0
[2025-04-13 13:54:39.600347] 4
[2025-04-13 13:54:39.600347] 16
[2025-04-13 13:54:39.600347] 36
[2025-04-13 13:54:39.610502] 16
[2025-04-13 13:54:39.610502] 1
[2025-04-13 13:54:39.610502] 1
[2025-04-13 13:54:39.610502] 9
[2025-04-13 13:54:39.610502] 36
[2025-04-13 13:54:39.610502] 36
[2025-04-13 13:54:39.610502] 25
[2025-04-13 13:54:39.610502] 25
[2025-04-13 13:54:39.610502] 16
[2025-04-13 13:54:39.621137] 16
[2025-04-13 13:54:39.622146] 9
[2025-04-13 13:54:39.622146] 9
[2025-04-13 13:54:39.622146] 4
[2025-04-13 13:54:39.622146] 0
[2025-04-13 13:54:39.622146] 0
[2025-04-13 13:54:39.623161] 4
[2025-04-13 13:54:39.623161] 9
[2025-04-13 13:54:39.623161] 9
[2025-04-13 13:54:39.623161] 9
[2025-04-13 13:54:39.632140] 1
[2025-04-13 13:54:39.632140] 0
[2025-04-13 13:54:39.632140] 4
[2025-04-13 13:54:39.632140] 9
[2025-04-13 13:54:39.632140] 25
[2025-04-13 13:54:39.632140] 16
[2025-04-13 13:54:39.632140] 36
[2025-04-13 13:54:39.632140] 25
[2025-04-13 13:54:39.633105] 25
[2025-04-13 13:54:39.643758] 25
[2025-04-13 13:54:39.643758] 9
[2025-04-13 13:54:39.643758] 4
[2025-04-13 13:54:39.643758] 1
[2025-04-13 13:54:39.643758] 1
[2025-04-13 13:54:39.643758] 4
[2025-04-13 13:54:39.643758] 4
[2025-04-13 13:54:39.643758] 4
[2025-04-13 13:54:39.644764] 0
[2025-04-13 13:54:39.644764] 0
[2025-04-13 13:54:39.644764] 0
[2025-04-13 13:54:39.654007] 1
[2025-04-13 13:54:39.654007] 4
[2025-04-13 13:54:39.654007] 16
[2025-04-13 13:54:39.654007] 25
[2025-04-13 13:54:39.654007] 36
[2025-04-13 13:54:39.654007] 25
[2025-04-13 13:54:39.654007] 25
[2025-04-13 13:54:39.654007] 16
[2025-04-13 13:54:39.666212] 9
[2025-04-13 13:54:39.666212] 4
[2025-04-13 13:54:39.666212] 0
[2025-04-13 13:54:39.666212] 1
[2025-04-13 13:54:39.666212] 9
[2025-04-13 13:54:39.666212] 9
[2025-04-13 13:54:39.666212] 4
[2025-04-13 13:54:39.666212] 0
[2025-04-13 13:54:39.666212] 0
[2025-04-13 13:54:39.666212] 4
[2025-04-13 13:54:39.666972] 9
[2025-04-13 13:54:39.675353] 25
[2025-04-13 13:54:39.675353] 16
[2025-04-13 13:54:39.675353] 36
[2025-04-13 13:54:39.675353] 25
[2025-04-13 13:54:39.675353] 25
[2025-04-13 13:54:39.675353] 25
[2025-04-13 13:54:39.675353] 9
[2025-04-13 13:54:39.676243] 4
[2025-04-13 13:54:39.676243] 0
[2025-04-13 13:54:39.686913] 1
[2025-04-13 13:54:39.686913] 9
[2025-04-13 13:54:39.686913] 16
[2025-04-13 13:54:39.686913] 16
[2025-04-13 13:54:39.686913] 4
[2025-04-13 13:54:39.686913] 0
[2025-04-13 13:54:39.686913] 4
[2025-04-13 13:54:39.686913] 9
[2025-04-13 13:54:39.686913] 16
[2025-04-13 13:54:39.695845] 25
[2025-04-13 13:54:39.695845] 25
[2025-04-13 13:54:39.696699] 25
[2025-04-13 13:54:39.696699] 25
[2025-04-13 13:54:39.696699] 25
[2025-04-13 13:54:39.696699] 25
[2025-04-13 13:54:39.696699] 16
[2025-04-13 13:54:39.696699] 9
[2025-04-13 13:54:39.696699] 0
[2025-04-13 13:54:39.706757] 9
[2025-04-13 13:54:39.706757] 16
[2025-04-13 13:54:39.706757] 25
[2025-04-13 13:54:39.706757] 25
[2025-04-13 13:54:39.706757] 9
[2025-04-13 13:54:39.706757] 0
[2025-04-13 13:54:39.706757] 9
[2025-04-13 13:54:39.706757] 16
[2025-04-13 13:54:39.706757] 25
[2025-04-13 13:54:39.717128] 49
[2025-04-13 13:54:39.717128] 49
[2025-04-13 13:54:39.717128] 49
[2025-04-13 13:54:39.717128] 36
[2025-04-13 13:54:39.717128] 25
[2025-04-13 13:54:39.717128] 9
[2025-04-13 13:54:39.718128] 1
[2025-04-13 13:54:39.718128] 0
[2025-04-13 13:54:39.718128] 4
[2025-04-13 13:54:39.727263] 16
[2025-04-13 13:54:39.727263] 16
[2025-04-13 13:54:39.727263] 16
[2025-04-13 13:54:39.728284] 9
[2025-04-13 13:54:39.728284] 0
[2025-04-13 13:54:39.728284] 1
[2025-04-13 13:54:39.728284] 16
[2025-04-13 13:54:39.728284] 25
[2025-04-13 13:54:39.737608] 49
[2025-04-13 13:54:39.737608] 49
[2025-04-13 13:54:39.737608] 36
[2025-04-13 13:54:39.737608] 25
[2025-04-13 13:54:39.737608] 16
[2025-04-13 13:54:39.737608] 16
[2025-04-13 13:54:39.738601] 1
[2025-04-13 13:54:39.738601] 0
[2025-04-13 13:54:39.738601] 1
[2025-04-13 13:54:39.747610] 16
[2025-04-13 13:54:39.747610] 16
[2025-04-13 13:54:39.747610] 16
[2025-04-13 13:54:39.747610] 4
[2025-04-13 13:54:39.747610] 0
[2025-04-13 13:54:39.748602] 1
[2025-04-13 13:54:39.748602] 9
[2025-04-13 13:54:39.748602] 16
[2025-04-13 13:54:39.748602] 25
[2025-04-13 13:54:39.757706] 49
[2025-04-13 13:54:39.758714] 49
[2025-04-13 13:54:39.758714] 49
[2025-04-13 13:54:39.758714] 36
[2025-04-13 13:54:39.758714] 25
[2025-04-13 13:54:39.758714] 9
[2025-04-13 13:54:39.758714] 1
[2025-04-13 13:54:39.758714] 1
[2025-04-13 13:54:39.758714] 16
[2025-04-13 13:54:39.768956] 25
[2025-04-13 13:54:39.768956] 16
[2025-04-13 13:54:39.768956] 9
[2025-04-13 13:54:39.768956] 1
[2025-04-13 13:54:39.768956] 0
[2025-04-13 13:54:39.768956] 9
[2025-04-13 13:54:39.768956] 16
[2025-04-13 13:54:39.768956] 25
[2025-04-13 13:54:39.768956] 25
[2025-04-13 13:54:39.779962] 36
[2025-04-13 13:54:39.779962] 36
[2025-04-13 13:54:39.779962] 25
[2025-04-13 13:54:39.779962] 16
[2025-04-13 13:54:39.779962] 9
[2025-04-13 13:54:39.779962] 1
[2025-04-13 13:54:39.780944] 0
[2025-04-13 13:54:39.780944] 1
[2025-04-13 13:54:39.780944] 9
[2025-04-13 13:54:39.789868] 9
[2025-04-13 13:54:39.789868] 4
[2025-04-13 13:54:39.789868] 1
[2025-04-13 13:54:39.790907] 0
[2025-04-13 13:54:39.790907] 0
[2025-04-13 13:54:39.790907] 1
[2025-04-13 13:54:39.790907] 9
[2025-04-13 13:54:39.790907] 16
[2025-04-13 13:54:39.790907] 25
[2025-04-13 13:54:39.790907] 36
[2025-04-13 13:54:39.799975] 64
[2025-04-13 13:54:39.799975] 64
[2025-04-13 13:54:39.799975] 49
[2025-04-13 13:54:39.799975] 16
[2025-04-13 13:54:39.799975] 0
[2025-04-13 13:54:39.799975] 9
[2025-04-13 13:54:39.799975] 16
[2025-04-13 13:54:39.799975] 16
[2025-04-13 13:54:39.810354] 16
[2025-04-13 13:54:39.810354] 4
[2025-04-13 13:54:39.810354] 0
[2025-04-13 13:54:39.810354] 1
[2025-04-13 13:54:39.811343] 9
[2025-04-13 13:54:39.811343] 25
[2025-04-13 13:54:39.811343] 25
[2025-04-13 13:54:39.811343] 49
[2025-04-13 13:54:39.811343] 36
[2025-04-13 13:54:39.821325] 25
[2025-04-13 13:54:39.821325] 16
[2025-04-13 13:54:39.821325] 9
[2025-04-13 13:54:39.821325] 4
[2025-04-13 13:54:39.821325] 0
[2025-04-13 13:54:39.821325] 4
[2025-04-13 13:54:39.821325] 9
[2025-04-13 13:54:39.821325] 16
[2025-04-13 13:54:39.821325] 16
[2025-04-13 13:54:39.821325] 9
[2025-04-13 13:54:39.830951] 0
[2025-04-13 13:54:39.830951] 4
[2025-04-13 13:54:39.830951] 16
[2025-04-13 13:54:39.830951] 16
[2025-04-13 13:54:39.831337] 25
[2025-04-13 13:54:39.831337] 16
[2025-04-13 13:54:39.831337] 25
[2025-04-13 13:54:39.831337] 25
[2025-04-13 13:54:39.842243] 25
[2025-04-13 13:54:39.842243] 25
[2025-04-13 13:54:39.842243] 16
[2025-04-13 13:54:39.842243] 4
[2025-04-13 13:54:39.842243] 0
[2025-04-13 13:54:39.842243] 4
[2025-04-13 13:54:39.842243] 9
[2025-04-13 13:54:39.842243] 9
[2025-04-13 13:54:39.842243] 9
[2025-04-13 13:54:39.843193] 1
[2025-04-13 13:54:39.851172] 0
[2025-04-13 13:54:39.851172] 9
[2025-04-13 13:54:39.851172] 16
[2025-04-13 13:54:39.851172] 16
[2025-04-13 13:54:39.851172] 25
[2025-04-13 13:54:39.852158] 36
[2025-04-13 13:54:39.852158] 36
[2025-04-13 13:54:39.852158] 25
[2025-04-13 13:54:39.852158] 25
[2025-04-13 13:54:39.863622] 16
[2025-04-13 13:54:39.863622] 1
[2025-04-13 13:54:39.863622] 0
[2025-04-13 13:54:39.863622] 1
[2025-04-13 13:54:39.863622] 9
[2025-04-13 13:54:39.863622] 9
[2025-04-13 13:54:39.864510] 9
[2025-04-13 13:54:39.864510] 4
[2025-04-13 13:54:39.864510] 0
[2025-04-13 13:54:39.864510] 1
[2025-04-13 13:54:39.872475] 4
[2025-04-13 13:54:39.873475] 16
[2025-04-13 13:54:39.873475] 25
[2025-04-13 13:54:39.873475] 36
[2025-04-13 13:54:39.873475] 25
[2025-04-13 13:54:39.873475] 36
[2025-04-13 13:54:39.873475] 25
[2025-04-13 13:54:39.873475] 16
[2025-04-13 13:54:39.885551] 9
[2025-04-13 13:54:39.885551] 1
[2025-04-13 13:54:39.885841] 0
[2025-04-13 13:54:39.885841] 4
[2025-04-13 13:54:39.885841] 4
[2025-04-13 13:54:39.885841] 9
[2025-04-13 13:54:39.885841] 4
[2025-04-13 13:54:39.885841] 1
[2025-04-13 13:54:39.885841] 0
[2025-04-13 13:54:39.885841] 1
[2025-04-13 13:54:39.885841] 1
[2025-04-13 13:54:39.896157] 4
[2025-04-13 13:54:39.896157] 16
[2025-04-13 13:54:39.896157] 25
[2025-04-13 13:54:39.896157] 25
[2025-04-13 13:54:39.896157] 25
[2025-04-13 13:54:39.896157] 16
[2025-04-13 13:54:39.896157] 9
[2025-04-13 13:54:39.896157] 9
[2025-04-13 13:54:39.896157] 1
[2025-04-13 13:54:39.907143] 0
[2025-04-13 13:54:39.907143] 4
[2025-04-13 13:54:39.907143] 9
[2025-04-13 13:54:39.907143] 9
[2025-04-13 13:54:39.908172] 9
[2025-04-13 13:54:39.908172] 1
[2025-04-13 13:54:39.908172] 1
[2025-04-13 13:54:39.908172] 9
[2025-04-13 13:54:39.908172] 16
[2025-04-13 13:54:39.908172] 16
[2025-04-13 13:54:39.916817] 36
[2025-04-13 13:54:39.917765] 36
[2025-04-13 13:54:39.917765] 36
[2025-04-13 13:54:39.917765] 25
[2025-04-13 13:54:39.917765] 25
[2025-04-13 13:54:39.917765] 9
[2025-04-13 13:54:39.917765] 1
[2025-04-13 13:54:39.917765] 1
[2025-04-13 13:54:39.917765] 9
[2025-04-13 13:54:39.928040] 9
[2025-04-13 13:54:39.928040] 4
[2025-04-13 13:54:39.928040] 1
[2025-04-13 13:54:39.928040] 0
[2025-04-13 13:54:39.928040] 0
[2025-04-13 13:54:39.928040] 4
[2025-04-13 13:54:39.928040] 9
[2025-04-13 13:54:39.928040] 25
[2025-04-13 13:54:39.928040] 25
[2025-04-13 13:54:39.928040] 36
[2025-04-13 13:54:39.938126] 49
[2025-04-13 13:54:39.938126] 49
[2025-04-13 13:54:39.938126] 25
[2025-04-13 13:54:39.938126] 16
[2025-04-13 13:54:39.938126] 1
[2025-04-13 13:54:39.939018] 1
[2025-04-13 13:54:39.939018] 4
[2025-04-13 13:54:39.939018] 9
[2025-04-13 13:54:39.939018] 16
[2025-04-13 13:54:39.948413] 16
[2025-04-13 13:54:39.948413] 9
[2025-04-13 13:54:39.948413] 1
[2025-04-13 13:54:39.948413] 1
[2025-04-13 13:54:39.948413] 9
[2025-04-13 13:54:39.948413] 25
[2025-04-13 13:54:39.949404] 25
[2025-04-13 13:54:39.949404] 36
[2025-04-13 13:54:39.949404] 36
[2025-04-13 13:54:39.959410] 25
[2025-04-13 13:54:39.959410] 16
[2025-04-13 13:54:39.960424] 16
[2025-04-13 13:54:39.960424] 9
[2025-04-13 13:54:39.960424] 4
[2025-04-13 13:54:39.960424] 0
[2025-04-13 13:54:39.960424] 1
[2025-04-13 13:54:39.960424] 4
[2025-04-13 13:54:39.960424] 9
[2025-04-13 13:54:39.970435] 9
[2025-04-13 13:54:39.970435] 4
[2025-04-13 13:54:39.970435] 0
[2025-04-13 13:54:39.970435] 4
[2025-04-13 13:54:39.970435] 16
[2025-04-13 13:54:39.970435] 25
[2025-04-13 13:54:39.970435] 25
[2025-04-13 13:54:39.970435] 25
[2025-04-13 13:54:39.970435] 25
[2025-04-13 13:54:39.982443] 9
[2025-04-13 13:54:39.982443] 9
[2025-04-13 13:54:39.982443] 4
[2025-04-13 13:54:39.982443] 4
[2025-04-13 13:54:39.982443] 4
[2025-04-13 13:54:39.982443] 0
[2025-04-13 13:54:39.982443] 1
[2025-04-13 13:54:39.982443] 4
[2025-04-13 13:54:39.982443] 9
[2025-04-13 13:54:39.982443] 9
[2025-04-13 13:54:39.982443] 1
[2025-04-13 13:54:39.992263] 0
[2025-04-13 13:54:39.992263] 4
[2025-04-13 13:54:39.992263] 16
[2025-04-13 13:54:39.992263] 16
[2025-04-13 13:54:39.992263] 25
[2025-04-13 13:54:39.992263] 36
[2025-04-13 13:54:39.992263] 36
[2025-04-13 13:54:39.992263] 25
[2025-04-13 13:54:40.004258] 25
[2025-04-13 13:54:40.004258] 9
[2025-04-13 13:54:40.004258] 4
[2025-04-13 13:54:40.004258] 0
[2025-04-13 13:54:40.004258] 0
[2025-04-13 13:54:40.004258] 4
[2025-04-13 13:54:40.004258] 9
[2025-04-13 13:54:40.004258] 9
[2025-04-13 13:54:40.004258] 4
[2025-04-13 13:54:40.004258] 0
[2025-04-13 13:54:40.004258] 1
[2025-04-13 13:54:40.013018] 9
[2025-04-13 13:54:40.013018] 16
[2025-04-13 13:54:40.014031] 36
[2025-04-13 13:54:40.014031] 36
[2025-04-13 13:54:40.014031] 36
[2025-04-13 13:54:40.014031] 25
[2025-04-13 13:54:40.014031] 16
[2025-04-13 13:54:40.014031] 16
[2025-04-13 13:54:40.025296] 4
[2025-04-13 13:54:40.025296] 1
[2025-04-13 13:54:40.025296] 1
[2025-04-13 13:54:40.025296] 4
[2025-04-13 13:54:40.025296] 16
[2025-04-13 13:54:40.025296] 16
[2025-04-13 13:54:40.025296] 9
[2025-04-13 13:54:40.025296] 1
[2025-04-13 13:54:40.025296] 1
[2025-04-13 13:54:40.025296] 4
[2025-04-13 13:54:40.034572] 16
[2025-04-13 13:54:40.034572] 16
[2025-04-13 13:54:40.034572] 16
[2025-04-13 13:54:40.034572] 25
[2025-04-13 13:54:40.034572] 36
[2025-04-13 13:54:40.034572] 25
[2025-04-13 13:54:40.034572] 25
[2025-04-13 13:54:40.034572] 16
[2025-04-13 13:54:40.045950] 1
[2025-04-13 13:54:40.045950] 1
[2025-04-13 13:54:40.045950] 4
[2025-04-13 13:54:40.045950] 9
[2025-04-13 13:54:40.045950] 9
[2025-04-13 13:54:40.045950] 4
[2025-04-13 13:54:40.045950] 1
[2025-04-13 13:54:40.045950] 1
[2025-04-13 13:54:40.045950] 4
[2025-04-13 13:54:40.045950] 9
[2025-04-13 13:54:40.045950] 16
[2025-04-13 13:54:40.056007] 16
[2025-04-13 13:54:40.056007] 25
[2025-04-13 13:54:40.056007] 25
[2025-04-13 13:54:40.056007] 25
[2025-04-13 13:54:40.056007] 25
[2025-04-13 13:54:40.056007] 16
[2025-04-13 13:54:40.056007] 9
[2025-04-13 13:54:40.056007] 0
[2025-04-13 13:54:40.067674] 1
[2025-04-13 13:54:40.067674] 9
[2025-04-13 13:54:40.067674] 9
[2025-04-13 13:54:40.067674] 4
[2025-04-13 13:54:40.067674] 1
[2025-04-13 13:54:40.067674] 1
[2025-04-13 13:54:40.067674] 0
[2025-04-13 13:54:40.067674] 0
[2025-04-13 13:54:40.067674] 1
[2025-04-13 13:54:40.067674] 9
[2025-04-13 13:54:40.067674] 36
[2025-04-13 13:54:40.077814] 64
[2025-04-13 13:54:40.077814] 81
[2025-04-13 13:54:40.077814] 49
[2025-04-13 13:54:40.077814] 36
[2025-04-13 13:54:40.077814] 16
[2025-04-13 13:54:40.077814] 1
[2025-04-13 13:54:40.077814] 1
[2025-04-13 13:54:40.077814] 9
[2025-04-13 13:54:40.088332] 16
[2025-04-13 13:54:40.088332] 16
[2025-04-13 13:54:40.088332] 9
[2025-04-13 13:54:40.088332] 4
[2025-04-13 13:54:40.088332] 0
[2025-04-13 13:54:40.088332] 4
[2025-04-13 13:54:40.088332] 16
[2025-04-13 13:54:40.088332] 25
[2025-04-13 13:54:40.088332] 25
[2025-04-13 13:54:40.099191] 25
[2025-04-13 13:54:40.099191] 36
[2025-04-13 13:54:40.099191] 25
[2025-04-13 13:54:40.099191] 16
[2025-04-13 13:54:40.099191] 9
[2025-04-13 13:54:40.100190] 1
[2025-04-13 13:54:40.100190] 0
[2025-04-13 13:54:40.100190] 1
[2025-04-13 13:54:40.100190] 9
[2025-04-13 13:54:40.100190] 9
[2025-04-13 13:54:40.109272] 9
[2025-04-13 13:54:40.109272] 4
[2025-04-13 13:54:40.109272] 0
[2025-04-13 13:54:40.110303] 1
[2025-04-13 13:54:40.110303] 9
[2025-04-13 13:54:40.110303] 25
[2025-04-13 13:54:40.110303] 16
[2025-04-13 13:54:40.110303] 25
[2025-04-13 13:54:40.110303] 25
[2025-04-13 13:54:40.119716] 36
[2025-04-13 13:54:40.119716] 36
[2025-04-13 13:54:40.120609] 25
[2025-04-13 13:54:40.120609] 9
[2025-04-13 13:54:40.120609] 1
[2025-04-13 13:54:40.120609] 0
[2025-04-13 13:54:40.120609] 4
[2025-04-13 13:54:40.120609] 9
[2025-04-13 13:54:40.120609] 16
[2025-04-13 13:54:40.120609] 9
[2025-04-13 13:54:40.130872] 1
[2025-04-13 13:54:40.130872] 0
[2025-04-13 13:54:40.130872] 4
[2025-04-13 13:54:40.130872] 9
[2025-04-13 13:54:40.130872] 25
[2025-04-13 13:54:40.130872] 25
[2025-04-13 13:54:40.130872] 36
[2025-04-13 13:54:40.130872] 36
[2025-04-13 13:54:40.130872] 25
[2025-04-13 13:54:40.142023] 16
[2025-04-13 13:54:40.142023] 9
[2025-04-13 13:54:40.142023] 1
[2025-04-13 13:54:40.142023] 0
[2025-04-13 13:54:40.142023] 1
[2025-04-13 13:54:40.142023] 9
[2025-04-13 13:54:40.142880] 16
[2025-04-13 13:54:40.142880] 16
[2025-04-13 13:54:40.142880] 4
[2025-04-13 13:54:40.151913] 1
[2025-04-13 13:54:40.151913] 1
[2025-04-13 13:54:40.151913] 16
[2025-04-13 13:54:40.151913] 36
[2025-04-13 13:54:40.151913] 36
[2025-04-13 13:54:40.151913] 36
[2025-04-13 13:54:40.151913] 36
[2025-04-13 13:54:40.151913] 36
[2025-04-13 13:54:40.151913] 25
[2025-04-13 13:54:40.162087] 16
[2025-04-13 13:54:40.162943] 4
[2025-04-13 13:54:40.162943] 0
[2025-04-13 13:54:40.162943] 4
[2025-04-13 13:54:40.162943] 9
[2025-04-13 13:54:40.162943] 16
[2025-04-13 13:54:40.162943] 16
[2025-04-13 13:54:40.162943] 9
[2025-04-13 13:54:40.162943] 1
[2025-04-13 13:54:40.172296] 1
[2025-04-13 13:54:40.172296] 9
[2025-04-13 13:54:40.172296] 25
[2025-04-13 13:54:40.172296] 25
[2025-04-13 13:54:40.172296] 49
[2025-04-13 13:54:40.172296] 36
[2025-04-13 13:54:40.172834] 25
[2025-04-13 13:54:40.172834] 16
[2025-04-13 13:54:40.172834] 16
[2025-04-13 13:54:40.183900] 9
[2025-04-13 13:54:40.183900] 1
[2025-04-13 13:54:40.183900] 0
[2025-04-13 13:54:40.184898] 9
[2025-04-13 13:54:40.184898] 9
[2025-04-13 13:54:40.184898] 9
[2025-04-13 13:54:40.184898] 1
[2025-04-13 13:54:40.184898] 0
[2025-04-13 13:54:40.184898] 1
[2025-04-13 13:54:40.185862] 9
[2025-04-13 13:54:40.194661] 16
[2025-04-13 13:54:40.194661] 25
[2025-04-13 13:54:40.194661] 36
[2025-04-13 13:54:40.194661] 25
[2025-04-13 13:54:40.194661] 16
[2025-04-13 13:54:40.194661] 16
[2025-04-13 13:54:40.194661] 4
[2025-04-13 13:54:40.194661] 4
[2025-04-13 13:54:40.194661] 4
[2025-04-13 13:54:40.205672] 0
[2025-04-13 13:54:40.205672] 0
[2025-04-13 13:54:40.205672] 4
[2025-04-13 13:54:40.205672] 9
[2025-04-13 13:54:40.205672] 9
[2025-04-13 13:54:40.206674] 4
[2025-04-13 13:54:40.206674] 0
[2025-04-13 13:54:40.206674] 4
[2025-04-13 13:54:40.206674] 9
[2025-04-13 13:54:40.206674] 16
[2025-04-13 13:54:40.216335] 16
[2025-04-13 13:54:40.216335] 25
[2025-04-13 13:54:40.216335] 25
[2025-04-13 13:54:40.216335] 36
[2025-04-13 13:54:40.216335] 25
[2025-04-13 13:54:40.216335] 16
[2025-04-13 13:54:40.216335] 9
[2025-04-13 13:54:40.216335] 1
[2025-04-13 13:54:40.216335] 0
[2025-04-13 13:54:40.226342] 4
[2025-04-13 13:54:40.226342] 16
[2025-04-13 13:54:40.226342] 16
[2025-04-13 13:54:40.226342] 9
[2025-04-13 13:54:40.227330] 1
[2025-04-13 13:54:40.227330] 0
[2025-04-13 13:54:40.227330] 4
[2025-04-13 13:54:40.227330] 9
[2025-04-13 13:54:40.227330] 16
[2025-04-13 13:54:40.237050] 25
[2025-04-13 13:54:40.237050] 25
[2025-04-13 13:54:40.237050] 25
[2025-04-13 13:54:40.237050] 16
[2025-04-13 13:54:40.237050] 16
[2025-04-13 13:54:40.237050] 9
[2025-04-13 13:54:40.237050] 9
[2025-04-13 13:54:40.237050] 1
[2025-04-13 13:54:40.237050] 0
[2025-04-13 13:54:40.237050] 0
[2025-04-13 13:54:40.247916] 4
[2025-04-13 13:54:40.247916] 4
[2025-04-13 13:54:40.247916] 1
[2025-04-13 13:54:40.247916] 0
[2025-04-13 13:54:40.247916] 1
[2025-04-13 13:54:40.247916] 9
[2025-04-13 13:54:40.248909] 16
[2025-04-13 13:54:40.248909] 16
[2025-04-13 13:54:40.248909] 25
[2025-04-13 13:54:40.258153] 25
[2025-04-13 13:54:40.258153] 16
[2025-04-13 13:54:40.259212] 16
[2025-04-13 13:54:40.259212] 9
[2025-04-13 13:54:40.259212] 9
[2025-04-13 13:54:40.259212] 1
[2025-04-13 13:54:40.259212] 0
[2025-04-13 13:54:40.259212] 0
[2025-04-13 13:54:40.259212] 9
[2025-04-13 13:54:40.259212] 16
[2025-04-13 13:54:40.269600] 9
[2025-04-13 13:54:40.270455] 4
[2025-04-13 13:54:40.270455] 0
[2025-04-13 13:54:40.270455] 1
[2025-04-13 13:54:40.270455] 9
[2025-04-13 13:54:40.270455] 16
[2025-04-13 13:54:40.270455] 36
[2025-04-13 13:54:40.270455] 36
[2025-04-13 13:54:40.270455] 36
[2025-04-13 13:54:40.281459] 36
[2025-04-13 13:54:40.281459] 25
[2025-04-13 13:54:40.281459] 9
[2025-04-13 13:54:40.281459] 4
[2025-04-13 13:54:40.281459] 0
[2025-04-13 13:54:40.281459] 4
[2025-04-13 13:54:40.281459] 4
[2025-04-13 13:54:40.281459] 4
[2025-04-13 13:54:40.281459] 4
[2025-04-13 13:54:40.281459] 4
[2025-04-13 13:54:40.291799] 0
[2025-04-13 13:54:40.291799] 1
[2025-04-13 13:54:40.291799] 9
[2025-04-13 13:54:40.291799] 9
[2025-04-13 13:54:40.291799] 9
[2025-04-13 13:54:40.291799] 16
[2025-04-13 13:54:40.291799] 36
[2025-04-13 13:54:40.291799] 25
[2025-04-13 13:54:40.291799] 25
[2025-04-13 13:54:40.301345] 16
[2025-04-13 13:54:40.301345] 16
[2025-04-13 13:54:40.302337] 1
[2025-04-13 13:54:40.302337] 0
[2025-04-13 13:54:40.302337] 1
[2025-04-13 13:54:40.302337] 9
[2025-04-13 13:54:40.302337] 16
[2025-04-13 13:54:40.302337] 16
[2025-04-13 13:54:40.302337] 4
[2025-04-13 13:54:40.302337] 0
[2025-04-13 13:54:40.312499] 4
[2025-04-13 13:54:40.312499] 9
[2025-04-13 13:54:40.312499] 16
[2025-04-13 13:54:40.312499] 25
[2025-04-13 13:54:40.312499] 36
[2025-04-13 13:54:40.312499] 36
[2025-04-13 13:54:40.312499] 36
[2025-04-13 13:54:40.312499] 36
[2025-04-13 13:54:40.323972] 25
[2025-04-13 13:54:40.323972] 9
[2025-04-13 13:54:40.323972] 0
[2025-04-13 13:54:40.323972] 1
[2025-04-13 13:54:40.323972] 4
[2025-04-13 13:54:40.323972] 9
[2025-04-13 13:54:40.323972] 9
[2025-04-13 13:54:40.323972] 4
[2025-04-13 13:54:40.323972] 4
[2025-04-13 13:54:40.323972] 0
[2025-04-13 13:54:40.323972] 1
[2025-04-13 13:54:40.334102] 9
[2025-04-13 13:54:40.334102] 25
[2025-04-13 13:54:40.334102] 36
[2025-04-13 13:54:40.334102] 36
[2025-04-13 13:54:40.334102] 36
[2025-04-13 13:54:40.334102] 36
[2025-04-13 13:54:40.334102] 25
[2025-04-13 13:54:40.334102] 9
[2025-04-13 13:54:40.345423] 4
[2025-04-13 13:54:40.345423] 0
[2025-04-13 13:54:40.345423] 1
[2025-04-13 13:54:40.345423] 9
[2025-04-13 13:54:40.345423] 16
[2025-04-13 13:54:40.345423] 16
[2025-04-13 13:54:40.345423] 9
[2025-04-13 13:54:40.345423] 1
[2025-04-13 13:54:40.345423] 1
[2025-04-13 13:54:40.345423] 9
[2025-04-13 13:54:40.354450] 25
[2025-04-13 13:54:40.355307] 36
[2025-04-13 13:54:40.355307] 36
[2025-04-13 13:54:40.355307] 36
[2025-04-13 13:54:40.355307] 36
[2025-04-13 13:54:40.355307] 25
[2025-04-13 13:54:40.355307] 16
[2025-04-13 13:54:40.355307] 9
[2025-04-13 13:54:40.355307] 0
[2025-04-13 13:54:40.366228] 1
[2025-04-13 13:54:40.366228] 9
[2025-04-13 13:54:40.366228] 16
[2025-04-13 13:54:40.366228] 9
[2025-04-13 13:54:40.366228] 4
[2025-04-13 13:54:40.366228] 0
[2025-04-13 13:54:40.366228] 0
[2025-04-13 13:54:40.366228] 9
[2025-04-13 13:54:40.366228] 9
[2025-04-13 13:54:40.366228] 16
[2025-04-13 13:54:40.376673] 36
[2025-04-13 13:54:40.376673] 36
[2025-04-13 13:54:40.376673] 25
[2025-04-13 13:54:40.376673] 16
[2025-04-13 13:54:40.376673] 16
[2025-04-13 13:54:40.376673] 16
[2025-04-13 13:54:40.376673] 16
[2025-04-13 13:54:40.376673] 1
[2025-04-13 13:54:40.386837] 0
[2025-04-13 13:54:40.386837] 9
[2025-04-13 13:54:40.386837] 16
[2025-04-13 13:54:40.386837] 16
[2025-04-13 13:54:40.386837] 4
[2025-04-13 13:54:40.386837] 0
[2025-04-13 13:54:40.387878] 1
[2025-04-13 13:54:40.387878] 9
[2025-04-13 13:54:40.387878] 25
[2025-04-13 13:54:40.396987] 36
[2025-04-13 13:54:40.396987] 36
[2025-04-13 13:54:40.396987] 36
[2025-04-13 13:54:40.396987] 25
[2025-04-13 13:54:40.397877] 16
[2025-04-13 13:54:40.397877] 9
[2025-04-13 13:54:40.397877] 1
[2025-04-13 13:54:40.397877] 0
[2025-04-13 13:54:40.397877] 1
[2025-04-13 13:54:40.408178] 16
[2025-04-13 13:54:40.408178] 16
[2025-04-13 13:54:40.408178] 9
[2025-04-13 13:54:40.408178] 1
[2025-04-13 13:54:40.408178] 0
[2025-04-13 13:54:40.408178] 1
[2025-04-13 13:54:40.408178] 4
[2025-04-13 13:54:40.409235] 9
[2025-04-13 13:54:40.409235] 25
[2025-04-13 13:54:40.409235] 36
[2025-04-13 13:54:40.418767] 49
[2025-04-13 13:54:40.418767] 36
[2025-04-13 13:54:40.418767] 25
[2025-04-13 13:54:40.418767] 16
[2025-04-13 13:54:40.418767] 4
[2025-04-13 13:54:40.418767] 0
[2025-04-13 13:54:40.418767] 1
[2025-04-13 13:54:40.419655] 4
[2025-04-13 13:54:40.419655] 9
[2025-04-13 13:54:40.429641] 16
[2025-04-13 13:54:40.429641] 16
[2025-04-13 13:54:40.429641] 4
[2025-04-13 13:54:40.430618] 0
[2025-04-13 13:54:40.430618] 9
[2025-04-13 13:54:40.430618] 36
[2025-04-13 13:54:40.430618] 36
[2025-04-13 13:54:40.430618] 49
[2025-04-13 13:54:40.430618] 36
[2025-04-13 13:54:40.439845] 36
[2025-04-13 13:54:40.439845] 25
[2025-04-13 13:54:40.439845] 9
[2025-04-13 13:54:40.439845] 4
[2025-04-13 13:54:40.439845] 1
[2025-04-13 13:54:40.439845] 0
[2025-04-13 13:54:40.439845] 0
[2025-04-13 13:54:40.439845] 1
[2025-04-13 13:54:40.439845] 16
[2025-04-13 13:54:40.449641] 25
[2025-04-13 13:54:40.449641] 16
[2025-04-13 13:54:40.449641] 9
[2025-04-13 13:54:40.449641] 0
[2025-04-13 13:54:40.449641] 1
[2025-04-13 13:54:40.449641] 16
[2025-04-13 13:54:40.450672] 25
[2025-04-13 13:54:40.450672] 36
[2025-04-13 13:54:40.450672] 49
[2025-04-13 13:54:40.460671] 36
[2025-04-13 13:54:40.460671] 25
[2025-04-13 13:54:40.460671] 25
[2025-04-13 13:54:40.460671] 16
[2025-04-13 13:54:40.460671] 4
[2025-04-13 13:54:40.460671] 0
[2025-04-13 13:54:40.460671] 0
[2025-04-13 13:54:40.461730] 1
[2025-04-13 13:54:40.461730] 9
[2025-04-13 13:54:40.461730] 9
[2025-04-13 13:54:40.471027] 4
[2025-04-13 13:54:40.471027] 1
[2025-04-13 13:54:40.471027] 0
[2025-04-13 13:54:40.471027] 16
[2025-04-13 13:54:40.471027] 49
[2025-04-13 13:54:40.471027] 64
[2025-04-13 13:54:40.471027] 64
[2025-04-13 13:54:40.471027] 49
[2025-04-13 13:54:40.482169] 25
[2025-04-13 13:54:40.482169] 9
[2025-04-13 13:54:40.482169] 1
[2025-04-13 13:54:40.482169] 0
[2025-04-13 13:54:40.482169] 4
[2025-04-13 13:54:40.482169] 9
[2025-04-13 13:54:40.482169] 16
[2025-04-13 13:54:40.482169] 9
[2025-04-13 13:54:40.482169] 4
[2025-04-13 13:54:40.482169] 0
[2025-04-13 13:54:40.482169] 0
[2025-04-13 13:54:40.492392] 4
[2025-04-13 13:54:40.492392] 9
[2025-04-13 13:54:40.492392] 25
[2025-04-13 13:54:40.492392] 36
[2025-04-13 13:54:40.492392] 36
[2025-04-13 13:54:40.492392] 36
[2025-04-13 13:54:40.492392] 25
[2025-04-13 13:54:40.492392] 16
[2025-04-13 13:54:40.503393] 16
[2025-04-13 13:54:40.503393] 4
[2025-04-13 13:54:40.504249] 1
[2025-04-13 13:54:40.504249] 1
[2025-04-13 13:54:40.504249] 9
[2025-04-13 13:54:40.504249] 16
[2025-04-13 13:54:40.504249] 16
[2025-04-13 13:54:40.504249] 4
[2025-04-13 13:54:40.504249] 0
[2025-04-13 13:54:40.504249] 0
[2025-04-13 13:54:40.513147] 9
[2025-04-13 13:54:40.513147] 9
[2025-04-13 13:54:40.513147] 25
[2025-04-13 13:54:40.513147] 36
[2025-04-13 13:54:40.513147] 36
[2025-04-13 13:54:40.513147] 36
[2025-04-13 13:54:40.513147] 25
[2025-04-13 13:54:40.513147] 25
[2025-04-13 13:54:40.524006] 25
[2025-04-13 13:54:40.524006] 4
[2025-04-13 13:54:40.524006] 0
[2025-04-13 13:54:40.524006] 9
[2025-04-13 13:54:40.524006] 16
[2025-04-13 13:54:40.525002] 25
[2025-04-13 13:54:40.525002] 9
[2025-04-13 13:54:40.525002] 1
[2025-04-13 13:54:40.525002] 0
[2025-04-13 13:54:40.525002] 4
[2025-04-13 13:54:40.534062] 16
[2025-04-13 13:54:40.534062] 25
[2025-04-13 13:54:40.534062] 36
[2025-04-13 13:54:40.534062] 36
[2025-04-13 13:54:40.534062] 36
[2025-04-13 13:54:40.534062] 16
[2025-04-13 13:54:40.534062] 16
[2025-04-13 13:54:40.534062] 4
[2025-04-13 13:54:40.534062] 4
[2025-04-13 13:54:40.545128] 1
[2025-04-13 13:54:40.545128] 0
[2025-04-13 13:54:40.545128] 4
[2025-04-13 13:54:40.545128] 9
[2025-04-13 13:54:40.545128] 9
[2025-04-13 13:54:40.545128] 9
[2025-04-13 13:54:40.546102] 1
[2025-04-13 13:54:40.546102] 1
[2025-04-13 13:54:40.546102] 16
[2025-04-13 13:54:40.546102] 16
[2025-04-13 13:54:40.555330] 25
[2025-04-13 13:54:40.555330] 25
[2025-04-13 13:54:40.555330] 49
[2025-04-13 13:54:40.556327] 49
[2025-04-13 13:54:40.556327] 36
[2025-04-13 13:54:40.556327] 25
[2025-04-13 13:54:40.556327] 9
[2025-04-13 13:54:40.556327] 1
[2025-04-13 13:54:40.566822] 1
[2025-04-13 13:54:40.566822] 9
[2025-04-13 13:54:40.566822] 16
[2025-04-13 13:54:40.566822] 16
[2025-04-13 13:54:40.567781] 9
[2025-04-13 13:54:40.567781] 4
[2025-04-13 13:54:40.567781] 0
[2025-04-13 13:54:40.567781] 1
[2025-04-13 13:54:40.567781] 9
[2025-04-13 13:54:40.567781] 16
[2025-04-13 13:54:40.577255] 36
[2025-04-13 13:54:40.577255] 36
[2025-04-13 13:54:40.577255] 36
[2025-04-13 13:54:40.577255] 16
[2025-04-13 13:54:40.577255] 16
[2025-04-13 13:54:40.577255] 9
[2025-04-13 13:54:40.577255] 9
[2025-04-13 13:54:40.577255] 1
[2025-04-13 13:54:40.577255] 0
[2025-04-13 13:54:40.588385] 0
[2025-04-13 13:54:40.588385] 4
[2025-04-13 13:54:40.588385] 9
[2025-04-13 13:54:40.588385] 9
[2025-04-13 13:54:40.588385] 4
[2025-04-13 13:54:40.588385] 0
[2025-04-13 13:54:40.588385] 1
[2025-04-13 13:54:40.588385] 4
[2025-04-13 13:54:40.588385] 9
[2025-04-13 13:54:40.588385] 25
[2025-04-13 13:54:40.598999] 36
[2025-04-13 13:54:40.598999] 36
[2025-04-13 13:54:40.598999] 25
[2025-04-13 13:54:40.598999] 25
[2025-04-13 13:54:40.598999] 16
[2025-04-13 13:54:40.598999] 4
[2025-04-13 13:54:40.598999] 0
[2025-04-13 13:54:40.598999] 1
[2025-04-13 13:54:40.598999] 9
[2025-04-13 13:54:40.609330] 16
[2025-04-13 13:54:40.609330] 9
[2025-04-13 13:54:40.609330] 1
[2025-04-13 13:54:40.609330] 0
[2025-04-13 13:54:40.609330] 4
[2025-04-13 13:54:40.609330] 9
[2025-04-13 13:54:40.609330] 25
[2025-04-13 13:54:40.609330] 25
[2025-04-13 13:54:40.609330] 36
[2025-04-13 13:54:40.619384] 49
[2025-04-13 13:54:40.619384] 36
[2025-04-13 13:54:40.619384] 25
[2025-04-13 13:54:40.619384] 9
[2025-04-13 13:54:40.619384] 4
[2025-04-13 13:54:40.619384] 0
[2025-04-13 13:54:40.619384] 4
[2025-04-13 13:54:40.619384] 16
[2025-04-13 13:54:40.620424] 16
[2025-04-13 13:54:40.620424] 9
[2025-04-13 13:54:40.630010] 1
[2025-04-13 13:54:40.630010] 0
[2025-04-13 13:54:40.630010] 4
[2025-04-13 13:54:40.630010] 9
[2025-04-13 13:54:40.630010] 25
[2025-04-13 13:54:40.630010] 16
[2025-04-13 13:54:40.630901] 25
[2025-04-13 13:54:40.630901] 25
[2025-04-13 13:54:40.630901] 25
[2025-04-13 13:54:40.640009] 25
[2025-04-13 13:54:40.640009] 16
[2025-04-13 13:54:40.640871] 9
[2025-04-13 13:54:40.640871] 4
[2025-04-13 13:54:40.640871] 0
[2025-04-13 13:54:40.640871] 9
[2025-04-13 13:54:40.640871] 16
[2025-04-13 13:54:40.640871] 25
[2025-04-13 13:54:40.640871] 16
[2025-04-13 13:54:40.650877] 4
[2025-04-13 13:54:40.650877] 0
[2025-04-13 13:54:40.650877] 4
[2025-04-13 13:54:40.650877] 16
[2025-04-13 13:54:40.650877] 36
[2025-04-13 13:54:40.650877] 36
[2025-04-13 13:54:40.650877] 36
[2025-04-13 13:54:40.651872] 25
[2025-04-13 13:54:40.661688] 25
[2025-04-13 13:54:40.661688] 25
[2025-04-13 13:54:40.661688] 9
[2025-04-13 13:54:40.661688] 4
[2025-04-13 13:54:40.661688] 0
[2025-04-13 13:54:40.661688] 4
[2025-04-13 13:54:40.661688] 4
[2025-04-13 13:54:40.661688] 9
[2025-04-13 13:54:40.661688] 1
[2025-04-13 13:54:40.661688] 1
[2025-04-13 13:54:40.661688] 0
[2025-04-13 13:54:40.672150] 0
[2025-04-13 13:54:40.672150] 4
[2025-04-13 13:54:40.672150] 25
[2025-04-13 13:54:40.672150] 36
[2025-04-13 13:54:40.672150] 64
[2025-04-13 13:54:40.672150] 64
[2025-04-13 13:54:40.672150] 49
[2025-04-13 13:54:40.672150] 25
[2025-04-13 13:54:40.684282] 4
[2025-04-13 13:54:40.684282] 1
[2025-04-13 13:54:40.684282] 0
[2025-04-13 13:54:40.684282] 4
[2025-04-13 13:54:40.684282] 9
[2025-04-13 13:54:40.684282] 9
[2025-04-13 13:54:40.684282] 9
[2025-04-13 13:54:40.684282] 4
[2025-04-13 13:54:40.684282] 0
[2025-04-13 13:54:40.685323] 0
[2025-04-13 13:54:40.685323] 4
[2025-04-13 13:54:40.694350] 9
[2025-04-13 13:54:40.694350] 16
[2025-04-13 13:54:40.694350] 25
[2025-04-13 13:54:40.694350] 36
[2025-04-13 13:54:40.694350] 36
[2025-04-13 13:54:40.694350] 25
[2025-04-13 13:54:40.694350] 25
[2025-04-13 13:54:40.695418] 25
[2025-04-13 13:54:40.704644] 9
[2025-04-13 13:54:40.704644] 1
[2025-04-13 13:54:40.704644] 1
[2025-04-13 13:54:40.704644] 16
[2025-04-13 13:54:40.704644] 25
[2025-04-13 13:54:40.704644] 25
[2025-04-13 13:54:40.704644] 4
[2025-04-13 13:54:40.704644] 0
[2025-04-13 13:54:40.704644] 4
[2025-04-13 13:54:40.704644] 16
[2025-04-13 13:54:40.715026] 25
[2025-04-13 13:54:40.715026] 25
[2025-04-13 13:54:40.715026] 36
[2025-04-13 13:54:40.715026] 25
[2025-04-13 13:54:40.715026] 16
[2025-04-13 13:54:40.715026] 16
[2025-04-13 13:54:40.715026] 9
[2025-04-13 13:54:40.715026] 4
[2025-04-13 13:54:40.726031] 0
[2025-04-13 13:54:40.726031] 1
[2025-04-13 13:54:40.726031] 4
[2025-04-13 13:54:40.726031] 9
[2025-04-13 13:54:40.726031] 4
[2025-04-13 13:54:40.726031] 4
[2025-04-13 13:54:40.726031] 0
[2025-04-13 13:54:40.726031] 4
[2025-04-13 13:54:40.726031] 16
[2025-04-13 13:54:40.726031] 25
[2025-04-13 13:54:40.736221] 49
[2025-04-13 13:54:40.736221] 49
[2025-04-13 13:54:40.736221] 36
[2025-04-13 13:54:40.736221] 25
[2025-04-13 13:54:40.736221] 16
[2025-04-13 13:54:40.736221] 9
[2025-04-13 13:54:40.736221] 4
[2025-04-13 13:54:40.736221] 0
[2025-04-13 13:54:40.737241] 1
[2025-04-13 13:54:40.747216] 4
[2025-04-13 13:54:40.748209] 9
[2025-04-13 13:54:40.748209] 9
[2025-04-13 13:54:40.748209] 4
[2025-04-13 13:54:40.748209] 1
[2025-04-13 13:54:40.748209] 0
[2025-04-13 13:54:40.748209] 4
[2025-04-13 13:54:40.748209] 16
[2025-04-13 13:54:40.748209] 25
[2025-04-13 13:54:40.748209] 36
[2025-04-13 13:54:40.757412] 49
[2025-04-13 13:54:40.757412] 36
[2025-04-13 13:54:40.757412] 25
[2025-04-13 13:54:40.757412] 16
[2025-04-13 13:54:40.757412] 16
[2025-04-13 13:54:40.757412] 1
[2025-04-13 13:54:40.757412] 0
[2025-04-13 13:54:40.757412] 4
[2025-04-13 13:54:40.757412] 16
[2025-04-13 13:54:40.767554] 16
[2025-04-13 13:54:40.767554] 4
[2025-04-13 13:54:40.767554] 0
[2025-04-13 13:54:40.767554] 1
[2025-04-13 13:54:40.767554] 4
[2025-04-13 13:54:40.767554] 16
[2025-04-13 13:54:40.767554] 16
[2025-04-13 13:54:40.767554] 25
[2025-04-13 13:54:40.767554] 25
[2025-04-13 13:54:40.778125] 25
[2025-04-13 13:54:40.778125] 16
[2025-04-13 13:54:40.778125] 25
[2025-04-13 13:54:40.778125] 25
[2025-04-13 13:54:40.778125] 9
[2025-04-13 13:54:40.778125] 1
[2025-04-13 13:54:40.778125] 1
[2025-04-13 13:54:40.778125] 4
[2025-04-13 13:54:40.778125] 16
[2025-04-13 13:54:40.788944] 16
[2025-04-13 13:54:40.788944] 9
[2025-04-13 13:54:40.788944] 1
[2025-04-13 13:54:40.789924] 0
[2025-04-13 13:54:40.789924] 4
[2025-04-13 13:54:40.789924] 9
[2025-04-13 13:54:40.789924] 25
[2025-04-13 13:54:40.789924] 25
[2025-04-13 13:54:40.789924] 25
[2025-04-13 13:54:40.798962] 25
[2025-04-13 13:54:40.798962] 25
[2025-04-13 13:54:40.798962] 36
[2025-04-13 13:54:40.798962] 25
[2025-04-13 13:54:40.798962] 4
[2025-04-13 13:54:40.798962] 0
[2025-04-13 13:54:40.798962] 4
[2025-04-13 13:54:40.798962] 16
[2025-04-13 13:54:40.798962] 16
[2025-04-13 13:54:40.810084] 9
[2025-04-13 13:54:40.810084] 1
[2025-04-13 13:54:40.810084] 0
[2025-04-13 13:54:40.810084] 4
[2025-04-13 13:54:40.810084] 9
[2025-04-13 13:54:40.810984] 25
[2025-04-13 13:54:40.810984] 16
[2025-04-13 13:54:40.810984] 25
[2025-04-13 13:54:40.810984] 25
[2025-04-13 13:54:40.820319] 16
[2025-04-13 13:54:40.820319] 25
[2025-04-13 13:54:40.820319] 16
[2025-04-13 13:54:40.820319] 9
[2025-04-13 13:54:40.820319] 0
[2025-04-13 13:54:40.820319] 1
[2025-04-13 13:54:40.820319] 9
[2025-04-13 13:54:40.821370] 16
[2025-04-13 13:54:40.821370] 16
[2025-04-13 13:54:40.829895] 9
[2025-04-13 13:54:40.829895] 0
[2025-04-13 13:54:40.829895] 4
[2025-04-13 13:54:40.829895] 16
[2025-04-13 13:54:40.829895] 25
[2025-04-13 13:54:40.829895] 36
[2025-04-13 13:54:40.829895] 36
[2025-04-13 13:54:40.829895] 36
[2025-04-13 13:54:40.830497] 25
[2025-04-13 13:54:40.841252] 16
[2025-04-13 13:54:40.841252] 9
[2025-04-13 13:54:40.841252] 9
[2025-04-13 13:54:40.841252] 0
[2025-04-13 13:54:40.841252] 0
[2025-04-13 13:54:40.841252] 1
[2025-04-13 13:54:40.841252] 9
[2025-04-13 13:54:40.841252] 16
[2025-04-13 13:54:40.842241] 9
[2025-04-13 13:54:40.842241] 1
[2025-04-13 13:54:40.851255] 0
[2025-04-13 13:54:40.851255] 4
[2025-04-13 13:54:40.851255] 16
[2025-04-13 13:54:40.851255] 25
[2025-04-13 13:54:40.851255] 36
[2025-04-13 13:54:40.851255] 36
[2025-04-13 13:54:40.851255] 25
[2025-04-13 13:54:40.851255] 25
[2025-04-13 13:54:40.861668] 25
[2025-04-13 13:54:40.861668] 25
[2025-04-13 13:54:40.861668] 9
[2025-04-13 13:54:40.861668] 1
[2025-04-13 13:54:40.861668] 0
[2025-04-13 13:54:40.861668] 9
[2025-04-13 13:54:40.861668] 16
[2025-04-13 13:54:40.861668] 25
[2025-04-13 13:54:40.861668] 4
[2025-04-13 13:54:40.861668] 1
[2025-04-13 13:54:40.871940] 1
[2025-04-13 13:54:40.871940] 9
[2025-04-13 13:54:40.871940] 16
[2025-04-13 13:54:40.871940] 25
[2025-04-13 13:54:40.871940] 36
[2025-04-13 13:54:40.871940] 36
[2025-04-13 13:54:40.871940] 25
[2025-04-13 13:54:40.871940] 16
[2025-04-13 13:54:40.883590] 16
[2025-04-13 13:54:40.883590] 1
[2025-04-13 13:54:40.883590] 0
[2025-04-13 13:54:40.883590] 1
[2025-04-13 13:54:40.883590] 9
[2025-04-13 13:54:40.883590] 16
[2025-04-13 13:54:40.883590] 16
[2025-04-13 13:54:40.883590] 9
[2025-04-13 13:54:40.883590] 1
[2025-04-13 13:54:40.883590] 1
[2025-04-13 13:54:40.892673] 9
[2025-04-13 13:54:40.892673] 16
[2025-04-13 13:54:40.892673] 36
[2025-04-13 13:54:40.892673] 49
[2025-04-13 13:54:40.892673] 49
[2025-04-13 13:54:40.892673] 49
[2025-04-13 13:54:40.892673] 36
[2025-04-13 13:54:40.893564] 25
[2025-04-13 13:54:40.904346] 9
[2025-04-13 13:54:40.904346] 4
[2025-04-13 13:54:40.904346] 0
[2025-04-13 13:54:40.904346] 9
[2025-04-13 13:54:40.904346] 16
[2025-04-13 13:54:40.904346] 16
[2025-04-13 13:54:40.904346] 9
[2025-04-13 13:54:40.904346] 1
[2025-04-13 13:54:40.904346] 1
[2025-04-13 13:54:40.904346] 9
[2025-04-13 13:54:40.913084] 16
[2025-04-13 13:54:40.913084] 16
[2025-04-13 13:54:40.913084] 25
[2025-04-13 13:54:40.913084] 25
[2025-04-13 13:54:40.913084] 16
[2025-04-13 13:54:40.914121] 25
[2025-04-13 13:54:40.914121] 16
[2025-04-13 13:54:40.914121] 16
[2025-04-13 13:54:40.924229] 4
[2025-04-13 13:54:40.925107] 0
[2025-04-13 13:54:40.925107] 1
[2025-04-13 13:54:40.925107] 9
[2025-04-13 13:54:40.925107] 16
[2025-04-13 13:54:40.925107] 16
[2025-04-13 13:54:40.925107] 9
[2025-04-13 13:54:40.925107] 0
[2025-04-13 13:54:40.925107] 1
[2025-04-13 13:54:40.925107] 9
[2025-04-13 13:54:40.934404] 16
[2025-04-13 13:54:40.934404] 25
[2025-04-13 13:54:40.934404] 49
[2025-04-13 13:54:40.934404] 49
[2025-04-13 13:54:40.934404] 36
[2025-04-13 13:54:40.934404] 36
[2025-04-13 13:54:40.934404] 16
[2025-04-13 13:54:40.934404] 9
[2025-04-13 13:54:40.934404] 1
[2025-04-13 13:54:40.945386] 1
[2025-04-13 13:54:40.945386] 4
[2025-04-13 13:54:40.945386] 16
[2025-04-13 13:54:40.945386] 25
[2025-04-13 13:54:40.945386] 9
[2025-04-13 13:54:40.945386] 1
[2025-04-13 13:54:40.945386] 1
[2025-04-13 13:54:40.945386] 9
[2025-04-13 13:54:40.945386] 16
[2025-04-13 13:54:40.955134] 16
[2025-04-13 13:54:40.955134] 25
[2025-04-13 13:54:40.955134] 25
[2025-04-13 13:54:40.955134] 25
[2025-04-13 13:54:40.955134] 25
[2025-04-13 13:54:40.955134] 25
[2025-04-13 13:54:40.955134] 25
[2025-04-13 13:54:40.955134] 16
[2025-04-13 13:54:40.966489] 1
[2025-04-13 13:54:40.966489] 1
[2025-04-13 13:54:40.966489] 9
[2025-04-13 13:54:40.966489] 25
[2025-04-13 13:54:40.966489] 25
[2025-04-13 13:54:40.966489] 9
[2025-04-13 13:54:40.966489] 0
[2025-04-13 13:54:40.966489] 4
[2025-04-13 13:54:40.966489] 9
[2025-04-13 13:54:40.966489] 16
[2025-04-13 13:54:40.976590] 25
[2025-04-13 13:54:40.976590] 36
[2025-04-13 13:54:40.976590] 49
[2025-04-13 13:54:40.976590] 49
[2025-04-13 13:54:40.976590] 25
[2025-04-13 13:54:40.976590] 9
[2025-04-13 13:54:40.976590] 0
[2025-04-13 13:54:40.976590] 1
[2025-04-13 13:54:40.977451] 4
[2025-04-13 13:54:40.987076] 9
[2025-04-13 13:54:40.987076] 9
[2025-04-13 13:54:40.987076] 9
[2025-04-13 13:54:40.987076] 1
[2025-04-13 13:54:40.987076] 1
[2025-04-13 13:54:40.987076] 1
[2025-04-13 13:54:40.987076] 16
[2025-04-13 13:54:40.987076] 36
[2025-04-13 13:54:40.987076] 36
[2025-04-13 13:54:40.997084] 36
[2025-04-13 13:54:40.997084] 25
[2025-04-13 13:54:40.997084] 36
[2025-04-13 13:54:40.997084] 36
[2025-04-13 13:54:40.997959] 25
[2025-04-13 13:54:40.997959] 9
[2025-04-13 13:54:40.997959] 4
[2025-04-13 13:54:40.997959] 0
[2025-04-13 13:54:40.997959] 4
[2025-04-13 13:54:40.997959] 9
[2025-04-13 13:54:41.008092] 16
[2025-04-13 13:54:41.009094] 9
[2025-04-13 13:54:41.009094] 4
[2025-04-13 13:54:41.009094] 0
[2025-04-13 13:54:41.009094] 0
[2025-04-13 13:54:41.009094] 1
[2025-04-13 13:54:41.009094] 9
[2025-04-13 13:54:41.009094] 16
[2025-04-13 13:54:41.009094] 25
[2025-04-13 13:54:41.019173] 36
[2025-04-13 13:54:41.019173] 36
[2025-04-13 13:54:41.019173] 36
[2025-04-13 13:54:41.019173] 36
[2025-04-13 13:54:41.019173] 16
[2025-04-13 13:54:41.019173] 4
[2025-04-13 13:54:41.019173] 0
[2025-04-13 13:54:41.019173] 4
[2025-04-13 13:54:41.019173] 16
[2025-04-13 13:54:41.029176] 16
[2025-04-13 13:54:41.029176] 9
[2025-04-13 13:54:41.029176] 1
[2025-04-13 13:54:41.030232] 1
[2025-04-13 13:54:41.030232] 9
[2025-04-13 13:54:41.030232] 25
[2025-04-13 13:54:41.030232] 25
[2025-04-13 13:54:41.030232] 25
[2025-04-13 13:54:41.030232] 36
[2025-04-13 13:54:41.039960] 25
[2025-04-13 13:54:41.039960] 16
[2025-04-13 13:54:41.039960] 16
[2025-04-13 13:54:41.040850] 4
[2025-04-13 13:54:41.040850] 0
[2025-04-13 13:54:41.040850] 1
[2025-04-13 13:54:41.040850] 4
[2025-04-13 13:54:41.040850] 9
[2025-04-13 13:54:41.040850] 9
[2025-04-13 13:54:41.040850] 4
[2025-04-13 13:54:41.049970] 1
[2025-04-13 13:54:41.049970] 0
[2025-04-13 13:54:41.049970] 1
[2025-04-13 13:54:41.049970] 9
[2025-04-13 13:54:41.049970] 25
[2025-04-13 13:54:41.049970] 36
[2025-04-13 13:54:41.050823] 36
[2025-04-13 13:54:41.050823] 36
[2025-04-13 13:54:41.050823] 25
[2025-04-13 13:54:41.062513] 16
[2025-04-13 13:54:41.062513] 9
[2025-04-13 13:54:41.062513] 4
[2025-04-13 13:54:41.062513] 0
[2025-04-13 13:54:41.062513] 1
[2025-04-13 13:54:41.062513] 4
[2025-04-13 13:54:41.062513] 4
[2025-04-13 13:54:41.062513] 4
[2025-04-13 13:54:41.062513] 0
[2025-04-13 13:54:41.062513] 0
[2025-04-13 13:54:41.071659] 1
[2025-04-13 13:54:41.071659] 9
[2025-04-13 13:54:41.071659] 16
[2025-04-13 13:54:41.071659] 25
[2025-04-13 13:54:41.071659] 25
[2025-04-13 13:54:41.071659] 25
[2025-04-13 13:54:41.071659] 16
[2025-04-13 13:54:41.072552] 9
[2025-04-13 13:54:41.072552] 16
[2025-04-13 13:54:41.084554] 9
[2025-04-13 13:54:41.084554] 1
[2025-04-13 13:54:41.084554] 1
[2025-04-13 13:54:41.084554] 4
[2025-04-13 13:54:41.084554] 9
[2025-04-13 13:54:41.084554] 16
[2025-04-13 13:54:41.085596] 9
[2025-04-13 13:54:41.085596] 1
[2025-04-13 13:54:41.085596] 0
[2025-04-13 13:54:41.085596] 9
[2025-04-13 13:54:41.093308] 25
[2025-04-13 13:54:41.093308] 36
[2025-04-13 13:54:41.093308] 36
[2025-04-13 13:54:41.093308] 49
[2025-04-13 13:54:41.093308] 36
[2025-04-13 13:54:41.093308] 25
[2025-04-13 13:54:41.094206] 16
[2025-04-13 13:54:41.094206] 9
[2025-04-13 13:54:41.104167] 1
[2025-04-13 13:54:41.104167] 0
[2025-04-13 13:54:41.105166] 1
[2025-04-13 13:54:41.105166] 4
[2025-04-13 13:54:41.105166] 9
[2025-04-13 13:54:41.105166] 9
[2025-04-13 13:54:41.105166] 4
[2025-04-13 13:54:41.105166] 0
[2025-04-13 13:54:41.105166] 1
[2025-04-13 13:54:41.105166] 9
[2025-04-13 13:54:41.105166] 16
[2025-04-13 13:54:41.116022] 25
[2025-04-13 13:54:41.116022] 36
[2025-04-13 13:54:41.116022] 25
[2025-04-13 13:54:41.116022] 16
[2025-04-13 13:54:41.116940] 9
[2025-04-13 13:54:41.116940] 9
[2025-04-13 13:54:41.116940] 1
[2025-04-13 13:54:41.116940] 0
[2025-04-13 13:54:41.116940] 0
[2025-04-13 13:54:41.125956] 1
[2025-04-13 13:54:41.126937] 4
[2025-04-13 13:54:41.126937] 4
[2025-04-13 13:54:41.126937] 1
[2025-04-13 13:54:41.126937] 0
[2025-04-13 13:54:41.126937] 1
[2025-04-13 13:54:41.126937] 4
[2025-04-13 13:54:41.126937] 16
[2025-04-13 13:54:41.126937] 25
[2025-04-13 13:54:41.126937] 36
[2025-04-13 13:54:41.137289] 36
[2025-04-13 13:54:41.137289] 25
[2025-04-13 13:54:41.138266] 16
[2025-04-13 13:54:41.138266] 9
[2025-04-13 13:54:41.138266] 9
[2025-04-13 13:54:41.138266] 1
[2025-04-13 13:54:41.138266] 0
[2025-04-13 13:54:41.138266] 1
[2025-04-13 13:54:41.138266] 9
[2025-04-13 13:54:41.148269] 9
[2025-04-13 13:54:41.148269] 9
[2025-04-13 13:54:41.148269] 4
[2025-04-13 13:54:41.148269] 0
[2025-04-13 13:54:41.148269] 0
[2025-04-13 13:54:41.148269] 9
[2025-04-13 13:54:41.148269] 16
[2025-04-13 13:54:41.148269] 25
[2025-04-13 13:54:41.148269] 36
[2025-04-13 13:54:41.148269] 36
[2025-04-13 13:54:41.158925] 36
[2025-04-13 13:54:41.159783] 25
[2025-04-13 13:54:41.159783] 16
[2025-04-13 13:54:41.159783] 4
[2025-04-13 13:54:41.159783] 1
[2025-04-13 13:54:41.159783] 0
[2025-04-13 13:54:41.159783] 0
[2025-04-13 13:54:41.159783] 0
[2025-04-13 13:54:41.160784] 1
[2025-04-13 13:54:41.169614] 4
[2025-04-13 13:54:41.169614] 4
[2025-04-13 13:54:41.169614] 0
[2025-04-13 13:54:41.169614] 0
[2025-04-13 13:54:41.169614] 4
[2025-04-13 13:54:41.170468] 16
[2025-04-13 13:54:41.170468] 25
[2025-04-13 13:54:41.170468] 25
[2025-04-13 13:54:41.170468] 25
[2025-04-13 13:54:41.180540] 25
[2025-04-13 13:54:41.180540] 16
[2025-04-13 13:54:41.180540] 9
[2025-04-13 13:54:41.180540] 4
[2025-04-13 13:54:41.180540] 1
[2025-04-13 13:54:41.180540] 1
[2025-04-13 13:54:41.180540] 9
[2025-04-13 13:54:41.180540] 25
[2025-04-13 13:54:41.180540] 25
[2025-04-13 13:54:41.181468] 16
[2025-04-13 13:54:41.190742] 1
[2025-04-13 13:54:41.190742] 1
[2025-04-13 13:54:41.190742] 16
[2025-04-13 13:54:41.190742] 25
[2025-04-13 13:54:41.190742] 36
[2025-04-13 13:54:41.190742] 49
[2025-04-13 13:54:41.190742] 49
[2025-04-13 13:54:41.190742] 36
[2025-04-13 13:54:41.201886] 25
[2025-04-13 13:54:41.201886] 16
[2025-04-13 13:54:41.201886] 9
[2025-04-13 13:54:41.201886] 0
[2025-04-13 13:54:41.201886] 0
[2025-04-13 13:54:41.201886] 4
[2025-04-13 13:54:41.201886] 9
[2025-04-13 13:54:41.201886] 16
[2025-04-13 13:54:41.201886] 9
[2025-04-13 13:54:41.201886] 1
[2025-04-13 13:54:41.211361] 0
[2025-04-13 13:54:41.211361] 4
[2025-04-13 13:54:41.211361] 9
[2025-04-13 13:54:41.211361] 25
[2025-04-13 13:54:41.211361] 36
[2025-04-13 13:54:41.212312] 49
[2025-04-13 13:54:41.212312] 49
[2025-04-13 13:54:41.212312] 36
[2025-04-13 13:54:41.212312] 25
[2025-04-13 13:54:41.223522] 9
[2025-04-13 13:54:41.223522] 4
[2025-04-13 13:54:41.223522] 0
[2025-04-13 13:54:41.223522] 4
[2025-04-13 13:54:41.223522] 9
[2025-04-13 13:54:41.223522] 9
[2025-04-13 13:54:41.223522] 9
[2025-04-13 13:54:41.223522] 4
[2025-04-13 13:54:41.223522] 0
[2025-04-13 13:54:41.223522] 1
[2025-04-13 13:54:41.232610] 4
[2025-04-13 13:54:41.232610] 16
[2025-04-13 13:54:41.232610] 25
[2025-04-13 13:54:41.233501] 25
[2025-04-13 13:54:41.233501] 25
[2025-04-13 13:54:41.233501] 36
[2025-04-13 13:54:41.233501] 25
[2025-04-13 13:54:41.233501] 16
[2025-04-13 13:54:41.233501] 9
[2025-04-13 13:54:41.245116] 0
[2025-04-13 13:54:41.245116] 0
[2025-04-13 13:54:41.245116] 4
[2025-04-13 13:54:41.245116] 9
[2025-04-13 13:54:41.245116] 9
[2025-04-13 13:54:41.245116] 4
[2025-04-13 13:54:41.245116] 0
[2025-04-13 13:54:41.245116] 0
[2025-04-13 13:54:41.245116] 1
[2025-04-13 13:54:41.245116] 9
[2025-04-13 13:54:41.255481] 9
[2025-04-13 13:54:41.255481] 36
[2025-04-13 13:54:41.255481] 49
[2025-04-13 13:54:41.255481] 64
[2025-04-13 13:54:41.255481] 49
[2025-04-13 13:54:41.255481] 36
[2025-04-13 13:54:41.255481] 16
[2025-04-13 13:54:41.255481] 1
[2025-04-13 13:54:41.255481] 1
[2025-04-13 13:54:41.265680] 4
[2025-04-13 13:54:41.265680] 16
[2025-04-13 13:54:41.265680] 16
[2025-04-13 13:54:41.265680] 16
[2025-04-13 13:54:41.265680] 4
[2025-04-13 13:54:41.266569] 0
[2025-04-13 13:54:41.266569] 1
[2025-04-13 13:54:41.266569] 9
[2025-04-13 13:54:41.266569] 25
[2025-04-13 13:54:41.275931] 25
[2025-04-13 13:54:41.276579] 36
[2025-04-13 13:54:41.276579] 36
[2025-04-13 13:54:41.276579] 25
[2025-04-13 13:54:41.276579] 16
[2025-04-13 13:54:41.276579] 9
[2025-04-13 13:54:41.276579] 9
[2025-04-13 13:54:41.276579] 0
[2025-04-13 13:54:41.276579] 0
[2025-04-13 13:54:41.287812] 1
[2025-04-13 13:54:41.287812] 9
[2025-04-13 13:54:41.287812] 9
[2025-04-13 13:54:41.287812] 9
[2025-04-13 13:54:41.287812] 1
[2025-04-13 13:54:41.287812] 0
[2025-04-13 13:54:41.287812] 4
[2025-04-13 13:54:41.287812] 16
[2025-04-13 13:54:41.287812] 25
[2025-04-13 13:54:41.287812] 49
[2025-04-13 13:54:41.297962] 49
[2025-04-13 13:54:41.297962] 36
[2025-04-13 13:54:41.297962] 25
[2025-04-13 13:54:41.297962] 16
[2025-04-13 13:54:41.297962] 9
[2025-04-13 13:54:41.297962] 1
[2025-04-13 13:54:41.298818] 0
[2025-04-13 13:54:41.298818] 4
[2025-04-13 13:54:41.298818] 9
[2025-04-13 13:54:41.308504] 9
[2025-04-13 13:54:41.308504] 9
[2025-04-13 13:54:41.308902] 1
[2025-04-13 13:54:41.308902] 0
[2025-04-13 13:54:41.308902] 4
[2025-04-13 13:54:41.308902] 9
[2025-04-13 13:54:41.308902] 25
[2025-04-13 13:54:41.308902] 25
[2025-04-13 13:54:41.308902] 36
[2025-04-13 13:54:41.308902] 36
[2025-04-13 13:54:41.319090] 25
[2025-04-13 13:54:41.319947] 16
[2025-04-13 13:54:41.319947] 16
[2025-04-13 13:54:41.319947] 4
[2025-04-13 13:54:41.319947] 0
[2025-04-13 13:54:41.319947] 1
[2025-04-13 13:54:41.319947] 1
[2025-04-13 13:54:41.319947] 9
[2025-04-13 13:54:41.319947] 9
[2025-04-13 13:54:41.330236] 9
[2025-04-13 13:54:41.330236] 4
[2025-04-13 13:54:41.330236] 0
[2025-04-13 13:54:41.330236] 1
[2025-04-13 13:54:41.330236] 9
[2025-04-13 13:54:41.330236] 16
[2025-04-13 13:54:41.330236] 36
[2025-04-13 13:54:41.331312] 36
[2025-04-13 13:54:41.331312] 25
[2025-04-13 13:54:41.339989] 25
[2025-04-13 13:54:41.339989] 25
[2025-04-13 13:54:41.339989] 16
[2025-04-13 13:54:41.340881] 9
[2025-04-13 13:54:41.340881] 0
[2025-04-13 13:54:41.340881] 0
[2025-04-13 13:54:41.340881] 9
[2025-04-13 13:54:41.340881] 16
[2025-04-13 13:54:41.340881] 16
[2025-04-13 13:54:41.340881] 9
[2025-04-13 13:54:41.351005] 1
[2025-04-13 13:54:41.351005] 1
[2025-04-13 13:54:41.351005] 9
[2025-04-13 13:54:41.351005] 25
[2025-04-13 13:54:41.351005] 25
[2025-04-13 13:54:41.351005] 49
[2025-04-13 13:54:41.351005] 49
[2025-04-13 13:54:41.351005] 36
[2025-04-13 13:54:41.362301] 25
[2025-04-13 13:54:41.363325] 16
[2025-04-13 13:54:41.363325] 9
[2025-04-13 13:54:41.363325] 0
[2025-04-13 13:54:41.363325] 1
[2025-04-13 13:54:41.363325] 9
[2025-04-13 13:54:41.363325] 16
[2025-04-13 13:54:41.363325] 16
[2025-04-13 13:54:41.363325] 4
[2025-04-13 13:54:41.363325] 0
[2025-04-13 13:54:41.371823] 0
[2025-04-13 13:54:41.371823] 1
[2025-04-13 13:54:41.371823] 16
[2025-04-13 13:54:41.371823] 36
[2025-04-13 13:54:41.371823] 64
[2025-04-13 13:54:41.371823] 64
[2025-04-13 13:54:41.371823] 49
[2025-04-13 13:54:41.371823] 36
[2025-04-13 13:54:41.382829] 16
[2025-04-13 13:54:41.382829] 9
[2025-04-13 13:54:41.382829] 0
[2025-04-13 13:54:41.382829] 1
[2025-04-13 13:54:41.382829] 16
[2025-04-13 13:54:41.382829] 25
[2025-04-13 13:54:41.382829] 25
[2025-04-13 13:54:41.382829] 9
[2025-04-13 13:54:41.382829] 1
[2025-04-13 13:54:41.383834] 0
[2025-04-13 13:54:41.392420] 4
[2025-04-13 13:54:41.392420] 9
[2025-04-13 13:54:41.392420] 16
[2025-04-13 13:54:41.392420] 16
[2025-04-13 13:54:41.392420] 36
[2025-04-13 13:54:41.393450] 36
[2025-04-13 13:54:41.393450] 36
[2025-04-13 13:54:41.393450] 36
[2025-04-13 13:54:41.403292] 16
[2025-04-13 13:54:41.403292] 9
[2025-04-13 13:54:41.403292] 1
[2025-04-13 13:54:41.403292] 0
[2025-04-13 13:54:41.403292] 4
[2025-04-13 13:54:41.403292] 16
[2025-04-13 13:54:41.403292] 16
[2025-04-13 13:54:41.404334] 9
[2025-04-13 13:54:41.404334] 0
[2025-04-13 13:54:41.404334] 1
[2025-04-13 13:54:41.413443] 9
[2025-04-13 13:54:41.413443] 25
[2025-04-13 13:54:41.414332] 36
[2025-04-13 13:54:41.414332] 49
[2025-04-13 13:54:41.414332] 49
[2025-04-13 13:54:41.414332] 36
[2025-04-13 13:54:41.414332] 16
[2025-04-13 13:54:41.414332] 9
[2025-04-13 13:54:41.414332] 4
[2025-04-13 13:54:41.425415] 1
[2025-04-13 13:54:41.425415] 0
[2025-04-13 13:54:41.425415] 9
[2025-04-13 13:54:41.425415] 16
[2025-04-13 13:54:41.425415] 16
[2025-04-13 13:54:41.425415] 9
[2025-04-13 13:54:41.425415] 4
[2025-04-13 13:54:41.425415] 0
[2025-04-13 13:54:41.425415] 1
[2025-04-13 13:54:41.425415] 4
[2025-04-13 13:54:41.434561] 9
[2025-04-13 13:54:41.434561] 25
[2025-04-13 13:54:41.434561] 36
[2025-04-13 13:54:41.434561] 49
[2025-04-13 13:54:41.434561] 49
[2025-04-13 13:54:41.434561] 25
[2025-04-13 13:54:41.434561] 16
[2025-04-13 13:54:41.434561] 4
[2025-04-13 13:54:41.434561] 0
[2025-04-13 13:54:41.445637] 1
[2025-04-13 13:54:41.445637] 9
[2025-04-13 13:54:41.445637] 9
[2025-04-13 13:54:41.445637] 9
[2025-04-13 13:54:41.445637] 1
[2025-04-13 13:54:41.445637] 0
[2025-04-13 13:54:41.445637] 4
[2025-04-13 13:54:41.446637] 16
[2025-04-13 13:54:41.446637] 25
[2025-04-13 13:54:41.456467] 36
[2025-04-13 13:54:41.456467] 36
[2025-04-13 13:54:41.456467] 36
[2025-04-13 13:54:41.456467] 25
[2025-04-13 13:54:41.456467] 25
[2025-04-13 13:54:41.456467] 16
[2025-04-13 13:54:41.456467] 4
[2025-04-13 13:54:41.456467] 0
[2025-04-13 13:54:41.457474] 1
[2025-04-13 13:54:41.466619] 9
[2025-04-13 13:54:41.466619] 16
[2025-04-13 13:54:41.466619] 16
[2025-04-13 13:54:41.466619] 9
[2025-04-13 13:54:41.466619] 1
[2025-04-13 13:54:41.466619] 0
[2025-04-13 13:54:41.467475] 4
[2025-04-13 13:54:41.467475] 16
[2025-04-13 13:54:41.467475] 25
[2025-04-13 13:54:41.477192] 36
[2025-04-13 13:54:41.477192] 49
[2025-04-13 13:54:41.477192] 64
[2025-04-13 13:54:41.477192] 49
[2025-04-13 13:54:41.477192] 36
[2025-04-13 13:54:41.477192] 16
[2025-04-13 13:54:41.477192] 0
[2025-04-13 13:54:41.477192] 1
[2025-04-13 13:54:41.477192] 9
[2025-04-13 13:54:41.487071] 16
[2025-04-13 13:54:41.487071] 16
[2025-04-13 13:54:41.488086] 16
[2025-04-13 13:54:41.488086] 4
[2025-04-13 13:54:41.488086] 0
[2025-04-13 13:54:41.488086] 1
[2025-04-13 13:54:41.488086] 9
[2025-04-13 13:54:41.488086] 16
[2025-04-13 13:54:41.488086] 36
[2025-04-13 13:54:41.497155] 36
[2025-04-13 13:54:41.498105] 36
[2025-04-13 13:54:41.498105] 25
[2025-04-13 13:54:41.498105] 25
[2025-04-13 13:54:41.498105] 16
[2025-04-13 13:54:41.498105] 1
[2025-04-13 13:54:41.498105] 1
[2025-04-13 13:54:41.498105] 9
[2025-04-13 13:54:41.498105] 9
[2025-04-13 13:54:41.508233] 9
[2025-04-13 13:54:41.508233] 4
[2025-04-13 13:54:41.508233] 0
[2025-04-13 13:54:41.508233] 0
[2025-04-13 13:54:41.508233] 4
[2025-04-13 13:54:41.509089] 16
[2025-04-13 13:54:41.509089] 36
[2025-04-13 13:54:41.509089] 36
[2025-04-13 13:54:41.509089] 36
[2025-04-13 13:54:41.519015] 25
[2025-04-13 13:54:41.519015] 16
[2025-04-13 13:54:41.519015] 9
[2025-04-13 13:54:41.519015] 4
[2025-04-13 13:54:41.519908] 1
[2025-04-13 13:54:41.519908] 0
[2025-04-13 13:54:41.519908] 4
[2025-04-13 13:54:41.519908] 9
[2025-04-13 13:54:41.519908] 4
[2025-04-13 13:54:41.519908] 1
[2025-04-13 13:54:41.519908] 1
[2025-04-13 13:54:41.529976] 0
[2025-04-13 13:54:41.529976] 1
[2025-04-13 13:54:41.529976] 9
[2025-04-13 13:54:41.529976] 16
[2025-04-13 13:54:41.529976] 25
[2025-04-13 13:54:41.529976] 25
[2025-04-13 13:54:41.529976] 25
[2025-04-13 13:54:41.529976] 36
[2025-04-13 13:54:41.541457] 16
[2025-04-13 13:54:41.541457] 9
[2025-04-13 13:54:41.542325] 9
[2025-04-13 13:54:41.542325] 1
[2025-04-13 13:54:41.542325] 0
[2025-04-13 13:54:41.542325] 0
[2025-04-13 13:54:41.542325] 4
[2025-04-13 13:54:41.542325] 9
[2025-04-13 13:54:41.542325] 9
[2025-04-13 13:54:41.542325] 4
[2025-04-13 13:54:41.542325] 0
[2025-04-13 13:54:41.551326] 1
[2025-04-13 13:54:41.551326] 4
[2025-04-13 13:54:41.551326] 16
[2025-04-13 13:54:41.551326] 16
[2025-04-13 13:54:41.551326] 16
[2025-04-13 13:54:41.551326] 25
[2025-04-13 13:54:41.551326] 25
[2025-04-13 13:54:41.552329] 25
[2025-04-13 13:54:41.563586] 25
[2025-04-13 13:54:41.563586] 9
[2025-04-13 13:54:41.563586] 4
[2025-04-13 13:54:41.563586] 1
[2025-04-13 13:54:41.563586] 0
[2025-04-13 13:54:41.563586] 4
[2025-04-13 13:54:41.563586] 4
[2025-04-13 13:54:41.563586] 4
[2025-04-13 13:54:41.563586] 4
[2025-04-13 13:54:41.563586] 4
[2025-04-13 13:54:41.564586] 0
[2025-04-13 13:54:41.573308] 4
[2025-04-13 13:54:41.573308] 25
[2025-04-13 13:54:41.573308] 25
[2025-04-13 13:54:41.573308] 36
[2025-04-13 13:54:41.573308] 49
[2025-04-13 13:54:41.573308] 36
[2025-04-13 13:54:41.573308] 25
[2025-04-13 13:54:41.573308] 9
[2025-04-13 13:54:41.573308] 4
[2025-04-13 13:54:41.584723] 0
[2025-04-13 13:54:41.584723] 0
[2025-04-13 13:54:41.584723] 4
[2025-04-13 13:54:41.584723] 16
[2025-04-13 13:54:41.584723] 16
[2025-04-13 13:54:41.584723] 9
[2025-04-13 13:54:41.584723] 1
[2025-04-13 13:54:41.584723] 1
[2025-04-13 13:54:41.584723] 9
[2025-04-13 13:54:41.594820] 25
[2025-04-13 13:54:41.594820] 25
[2025-04-13 13:54:41.594820] 49
[2025-04-13 13:54:41.594820] 49
[2025-04-13 13:54:41.594820] 36
[2025-04-13 13:54:41.594820] 25
[2025-04-13 13:54:41.594820] 16
[2025-04-13 13:54:41.595741] 9
[2025-04-13 13:54:41.595741] 1
[2025-04-13 13:54:41.604748] 1
[2025-04-13 13:54:41.604748] 16
[2025-04-13 13:54:41.604748] 25
[2025-04-13 13:54:41.605751] 16
[2025-04-13 13:54:41.605751] 4
[2025-04-13 13:54:41.605751] 0
[2025-04-13 13:54:41.605751] 4
[2025-04-13 13:54:41.605751] 16
[2025-04-13 13:54:41.605751] 25
[2025-04-13 13:54:41.615505] 25
[2025-04-13 13:54:41.615806] 25
[2025-04-13 13:54:41.615806] 25
[2025-04-13 13:54:41.615806] 16
[2025-04-13 13:54:41.615806] 16
[2025-04-13 13:54:41.615806] 9
[2025-04-13 13:54:41.615806] 9
[2025-04-13 13:54:41.615806] 1
[2025-04-13 13:54:41.615806] 0
[2025-04-13 13:54:41.625192] 1
[2025-04-13 13:54:41.626182] 9
[2025-04-13 13:54:41.626182] 16
[2025-04-13 13:54:41.626182] 16
[2025-04-13 13:54:41.626182] 4
[2025-04-13 13:54:41.626182] 0
[2025-04-13 13:54:41.626182] 1
[2025-04-13 13:54:41.626182] 16
[2025-04-13 13:54:41.626182] 25
[2025-04-13 13:54:41.636315] 36
[2025-04-13 13:54:41.636315] 36
[2025-04-13 13:54:41.636315] 36
[2025-04-13 13:54:41.636315] 25
[2025-04-13 13:54:41.636315] 25
[2025-04-13 13:54:41.636315] 16
[2025-04-13 13:54:41.636315] 9
[2025-04-13 13:54:41.636315] 1
[2025-04-13 13:54:41.636315] 0
[2025-04-13 13:54:41.646654] 4
[2025-04-13 13:54:41.646654] 9
[2025-04-13 13:54:41.646654] 9
[2025-04-13 13:54:41.646654] 4
[2025-04-13 13:54:41.646654] 1
[2025-04-13 13:54:41.646654] 0
[2025-04-13 13:54:41.646654] 4
[2025-04-13 13:54:41.646654] 16
[2025-04-13 13:54:41.646654] 16
[2025-04-13 13:54:41.646654] 25
[2025-04-13 13:54:41.657867] 25
[2025-04-13 13:54:41.657867] 25
[2025-04-13 13:54:41.657867] 16
[2025-04-13 13:54:41.657867] 16
[2025-04-13 13:54:41.657867] 9
[2025-04-13 13:54:41.657867] 4
[2025-04-13 13:54:41.658964] 0
[2025-04-13 13:54:41.658964] 0
[2025-04-13 13:54:41.658964] 9
[2025-04-13 13:54:41.668389] 16
[2025-04-13 13:54:41.668389] 9
[2025-04-13 13:54:41.668389] 4
[2025-04-13 13:54:41.668389] 0
[2025-04-13 13:54:41.668389] 1
[2025-04-13 13:54:41.668389] 9
[2025-04-13 13:54:41.668389] 25
[2025-04-13 13:54:41.668389] 36
[2025-04-13 13:54:41.668389] 36
[2025-04-13 13:54:41.679926] 25
[2025-04-13 13:54:41.679926] 25
[2025-04-13 13:54:41.679926] 9
[2025-04-13 13:54:41.679926] 9
[2025-04-13 13:54:41.679926] 4
[2025-04-13 13:54:41.680928] 4
[2025-04-13 13:54:41.680928] 0
[2025-04-13 13:54:41.680928] 1
[2025-04-13 13:54:41.680928] 9
[2025-04-13 13:54:41.680928] 9
[2025-04-13 13:54:41.690193] 4
[2025-04-13 13:54:41.690193] 0
[2025-04-13 13:54:41.690193] 0
[2025-04-13 13:54:41.690193] 1
[2025-04-13 13:54:41.690193] 9
[2025-04-13 13:54:41.690193] 9
[2025-04-13 13:54:41.690193] 25
[2025-04-13 13:54:41.690193] 25
[2025-04-13 13:54:41.690193] 36
[2025-04-13 13:54:41.690193] 36
[2025-04-13 13:54:41.702068] 25
[2025-04-13 13:54:41.702068] 9
[2025-04-13 13:54:41.702068] 4
[2025-04-13 13:54:41.702068] 0
[2025-04-13 13:54:41.702068] 4
[2025-04-13 13:54:41.702068] 9
[2025-04-13 13:54:41.703058] 4
[2025-04-13 13:54:41.703058] 1
[2025-04-13 13:54:41.703058] 0
[2025-04-13 13:54:41.703058] 1
[2025-04-13 13:54:41.711996] 4
[2025-04-13 13:54:41.711996] 9
[2025-04-13 13:54:41.711996] 16
[2025-04-13 13:54:41.711996] 16
[2025-04-13 13:54:41.711996] 36
[2025-04-13 13:54:41.711996] 36
[2025-04-13 13:54:41.711996] 25
[2025-04-13 13:54:41.711996] 16
[2025-04-13 13:54:41.724014] 16
[2025-04-13 13:54:41.724014] 4
[2025-04-13 13:54:41.724014] 0
[2025-04-13 13:54:41.724014] 4
[2025-04-13 13:54:41.724014] 9
[2025-04-13 13:54:41.724014] 9
[2025-04-13 13:54:41.724014] 9
[2025-04-13 13:54:41.724014] 4
[2025-04-13 13:54:41.724014] 0
[2025-04-13 13:54:41.724014] 0
[2025-04-13 13:54:41.724014] 4
[2025-04-13 13:54:41.733599] 16
[2025-04-13 13:54:41.733599] 25
[2025-04-13 13:54:41.733599] 25
[2025-04-13 13:54:41.733599] 49
[2025-04-13 13:54:41.733599] 36
[2025-04-13 13:54:41.733599] 25
[2025-04-13 13:54:41.733599] 16
[2025-04-13 13:54:41.733599] 9
[2025-04-13 13:54:41.745775] 1
[2025-04-13 13:54:41.745775] 0
[2025-04-13 13:54:41.745775] 4
[2025-04-13 13:54:41.745775] 9
[2025-04-13 13:54:41.745775] 9
[2025-04-13 13:54:41.745775] 4
[2025-04-13 13:54:41.745775] 1
[2025-04-13 13:54:41.745775] 0
[2025-04-13 13:54:41.745775] 1
[2025-04-13 13:54:41.745775] 4
[2025-04-13 13:54:41.745775] 9
[2025-04-13 13:54:41.756115] 25
[2025-04-13 13:54:41.756115] 25
[2025-04-13 13:54:41.756115] 36
[2025-04-13 13:54:41.756115] 36
[2025-04-13 13:54:41.756115] 25
[2025-04-13 13:54:41.756115] 9
[2025-04-13 13:54:41.756115] 9
[2025-04-13 13:54:41.756115] 1
[2025-04-13 13:54:41.756115] 0
[2025-04-13 13:54:41.767259] 4
[2025-04-13 13:54:41.767259] 4
[2025-04-13 13:54:41.768148] 1
[2025-04-13 13:54:41.768148] 1
[2025-04-13 13:54:41.768148] 0
[2025-04-13 13:54:41.768148] 0
[2025-04-13 13:54:41.768148] 1
[2025-04-13 13:54:41.768148] 9
[2025-04-13 13:54:41.769160] 25
[2025-04-13 13:54:41.769160] 25
[2025-04-13 13:54:41.776885] 25
[2025-04-13 13:54:41.777919] 25
[2025-04-13 13:54:41.777919] 16
[2025-04-13 13:54:41.777919] 16
[2025-04-13 13:54:41.777919] 9
[2025-04-13 13:54:41.777919] 9
[2025-04-13 13:54:41.778923] 0
[2025-04-13 13:54:41.778923] 0
[2025-04-13 13:54:41.778923] 4
[2025-04-13 13:54:41.789030] 9
[2025-04-13 13:54:41.789030] 9
[2025-04-13 13:54:41.789030] 4
[2025-04-13 13:54:41.789030] 1
[2025-04-13 13:54:41.789030] 0
[2025-04-13 13:54:41.789030] 1
[2025-04-13 13:54:41.789030] 4
[2025-04-13 13:54:41.789030] 25
[2025-04-13 13:54:41.789030] 36
[2025-04-13 13:54:41.790051] 64
[2025-04-13 13:54:41.799266] 64
[2025-04-13 13:54:41.799266] 49
[2025-04-13 13:54:41.799266] 25
[2025-04-13 13:54:41.799266] 9
[2025-04-13 13:54:41.799266] 1
[2025-04-13 13:54:41.799266] 1
[2025-04-13 13:54:41.799266] 9
[2025-04-13 13:54:41.799266] 16
[2025-04-13 13:54:41.799266] 16
[2025-04-13 13:54:41.809686] 9
[2025-04-13 13:54:41.809686] 1
[2025-04-13 13:54:41.809686] 1
[2025-04-13 13:54:41.809686] 9
[2025-04-13 13:54:41.809686] 25
[2025-04-13 13:54:41.810688] 16
[2025-04-13 13:54:41.810688] 25
[2025-04-13 13:54:41.810688] 25
[2025-04-13 13:54:41.810688] 25
[2025-04-13 13:54:41.819839] 25
[2025-04-13 13:54:41.819839] 16
[2025-04-13 13:54:41.819839] 9
[2025-04-13 13:54:41.819839] 4
[2025-04-13 13:54:41.819839] 0
[2025-04-13 13:54:41.819839] 4
[2025-04-13 13:54:41.819839] 9
[2025-04-13 13:54:41.819839] 16
[2025-04-13 13:54:41.819839] 16
[2025-04-13 13:54:41.829914] 9
[2025-04-13 13:54:41.830933] 0
[2025-04-13 13:54:41.830933] 4
[2025-04-13 13:54:41.830933] 9
[2025-04-13 13:54:41.830933] 16
[2025-04-13 13:54:41.830933] 25
[2025-04-13 13:54:41.830933] 25
[2025-04-13 13:54:41.830933] 49
[2025-04-13 13:54:41.830933] 36
[2025-04-13 13:54:41.841064] 25
[2025-04-13 13:54:41.841064] 16
[2025-04-13 13:54:41.841064] 9
[2025-04-13 13:54:41.841064] 0
[2025-04-13 13:54:41.841064] 0
[2025-04-13 13:54:41.841064] 9
[2025-04-13 13:54:41.841064] 16
[2025-04-13 13:54:41.841064] 16
[2025-04-13 13:54:41.841064] 9
[2025-04-13 13:54:41.841064] 1
[2025-04-13 13:54:41.850340] 1
[2025-04-13 13:54:41.851332] 16
[2025-04-13 13:54:41.851332] 36
[2025-04-13 13:54:41.851332] 64
[2025-04-13 13:54:41.851332] 49
[2025-04-13 13:54:41.851332] 49
[2025-04-13 13:54:41.851332] 25
[2025-04-13 13:54:41.851332] 16
[2025-04-13 13:54:41.862343] 9
[2025-04-13 13:54:41.862343] 4
[2025-04-13 13:54:41.862343] 1
[2025-04-13 13:54:41.862343] 1
[2025-04-13 13:54:41.862343] 9
[2025-04-13 13:54:41.862343] 16
[2025-04-13 13:54:41.863336] 25
[2025-04-13 13:54:41.863336] 9
[2025-04-13 13:54:41.863336] 1
[2025-04-13 13:54:41.863336] 0
[2025-04-13 13:54:41.871843] 9
[2025-04-13 13:54:41.871843] 16
[2025-04-13 13:54:41.871843] 25
[2025-04-13 13:54:41.871843] 36
[2025-04-13 13:54:41.871843] 36
[2025-04-13 13:54:41.871843] 36
[2025-04-13 13:54:41.871843] 25
[2025-04-13 13:54:41.871843] 25
