[2025-04-13 13:55:14.517020] 64
[2025-04-13 13:55:15.981872] 900
[2025-04-13 13:55:15.981872] 11449
[2025-04-13 13:55:15.982734] 28561
[2025-04-13 13:55:15.982734] 29929
[2025-04-13 13:55:15.988872] 20449
[2025-04-13 13:55:15.988872] 11025
[2025-04-13 13:55:15.989733] 5329
[2025-04-13 13:55:15.989733] 2401
[2025-04-13 13:55:15.989733] 1156
[2025-04-13 13:55:15.989733] 529
[2025-04-13 13:55:15.997192] 196
[2025-04-13 13:55:15.997192] 25
[2025-04-13 13:55:15.997192] 4
[2025-04-13 13:55:15.997192] 100
[2025-04-13 13:55:15.997192] 289
[2025-04-13 13:55:15.997192] 576
[2025-04-13 13:55:15.997192] 1225
[2025-04-13 13:55:16.004465] 2304
[2025-04-13 13:55:16.004465] 3600
[2025-04-13 13:55:16.004465] 4761
[2025-04-13 13:55:16.004465] 5184
[2025-04-13 13:55:16.004465] 4900
[2025-04-13 13:55:16.010410] 4356
[2025-04-13 13:55:16.010410] 3721
[2025-04-13 13:55:16.010410] 3249
[2025-04-13 13:55:16.011434] 2916
[2025-04-13 13:55:16.011434] 2209
[2025-04-13 13:55:16.018335] 1521
[2025-04-13 13:55:16.018335] 900
[2025-04-13 13:55:16.018335] 484
[2025-04-13 13:55:16.018335] 256
[2025-04-13 13:55:16.018335] 196
[2025-04-13 13:55:16.018335] 169
[2025-04-13 13:55:16.018335] 169
[2025-04-13 13:55:16.028425] 144
[2025-04-13 13:55:16.028425] 81
[2025-04-13 13:55:16.028425] 36
[2025-04-13 13:55:16.028425] 4
[2025-04-13 13:55:16.029313] 0
[2025-04-13 13:55:16.029313] 0
[2025-04-13 13:55:16.029313] 0
[2025-04-13 13:55:16.029313] 9
[2025-04-13 13:55:16.029313] 25
[2025-04-13 13:55:16.039281] 36
[2025-04-13 13:55:16.039281] 36
[2025-04-13 13:55:16.040328] 36
[2025-04-13 13:55:16.040328] 25
[2025-04-13 13:55:16.040328] 9
[2025-04-13 13:55:16.040328] 4
[2025-04-13 13:55:16.040328] 4
[2025-04-13 13:55:16.040328] 1
[2025-04-13 13:55:16.040328] 1
[2025-04-13 13:55:16.046877] 16
[2025-04-13 13:55:16.047844] 81
[2025-04-13 13:55:16.047844] 196
[2025-04-13 13:55:16.047844] 324
[2025-04-13 13:55:16.047844] 361
[2025-04-13 13:55:16.047844] 324
[2025-04-13 13:55:16.048842] 256
[2025-04-13 13:55:16.056028] 196
[2025-04-13 13:55:16.057047] 81
[2025-04-13 13:55:16.057047] 25
[2025-04-13 13:55:16.057047] 1
[2025-04-13 13:55:16.057047] 49
[2025-04-13 13:55:16.057047] 169
[2025-04-13 13:55:16.057047] 225
[2025-04-13 13:55:16.065035] 196
[2025-04-13 13:55:16.065035] 144
[2025-04-13 13:55:16.065035] 144
[2025-04-13 13:55:16.065035] 121
[2025-04-13 13:55:16.065035] 49
[2025-04-13 13:55:16.065035] 0
[2025-04-13 13:55:16.065035] 100
[2025-04-13 13:55:16.072627] 324
[2025-04-13 13:55:16.072627] 529
[2025-04-13 13:55:16.072627] 625
[2025-04-13 13:55:16.072627] 676
[2025-04-13 13:55:16.072627] 576
[2025-04-13 13:55:16.072627] 400
[2025-04-13 13:55:16.080646] 196
[2025-04-13 13:55:16.080646] 36
[2025-04-13 13:55:16.080646] 9
[2025-04-13 13:55:16.080646] 169
[2025-04-13 13:55:16.080646] 441
[2025-04-13 13:55:16.080646] 676
[2025-04-13 13:55:16.081638] 784
[2025-04-13 13:55:16.089583] 625
[2025-04-13 13:55:16.089583] 289
[2025-04-13 13:55:16.089583] 49
[2025-04-13 13:55:16.089583] 4
[2025-04-13 13:55:16.089583] 81
[2025-04-13 13:55:16.089583] 256
[2025-04-13 13:55:16.089583] 400
[2025-04-13 13:55:16.089583] 576
[2025-04-13 13:55:16.098863] 576
[2025-04-13 13:55:16.098863] 529
[2025-04-13 13:55:16.098863] 361
[2025-04-13 13:55:16.098863] 225
[2025-04-13 13:55:16.098863] 81
[2025-04-13 13:55:16.098863] 0
[2025-04-13 13:55:16.098863] 49
[2025-04-13 13:55:16.105848] 225
[2025-04-13 13:55:16.105848] 400
[2025-04-13 13:55:16.105848] 484
[2025-04-13 13:55:16.105848] 441
[2025-04-13 13:55:16.105848] 324
[2025-04-13 13:55:16.105848] 121
[2025-04-13 13:55:16.105848] 9
[2025-04-13 13:55:16.113876] 16
[2025-04-13 13:55:16.114878] 121
[2025-04-13 13:55:16.114878] 256
[2025-04-13 13:55:16.114878] 361
[2025-04-13 13:55:16.114878] 361
[2025-04-13 13:55:16.114878] 361
[2025-04-13 13:55:16.124064] 256
[2025-04-13 13:55:16.124064] 100
[2025-04-13 13:55:16.124064] 16
[2025-04-13 13:55:16.124064] 1
[2025-04-13 13:55:16.124064] 36
[2025-04-13 13:55:16.124064] 64
[2025-04-13 13:55:16.124064] 64
[2025-04-13 13:55:16.124064] 49
[2025-04-13 13:55:16.134111] 36
[2025-04-13 13:55:16.134111] 9
[2025-04-13 13:55:16.134111] 0
[2025-04-13 13:55:16.134111] 0
[2025-04-13 13:55:16.134111] 9
[2025-04-13 13:55:16.135088] 9
[2025-04-13 13:55:16.135088] 16
[2025-04-13 13:55:16.135088] 25
[2025-04-13 13:55:16.135088] 36
[2025-04-13 13:55:16.145440] 64
[2025-04-13 13:55:16.145440] 64
[2025-04-13 13:55:16.145440] 36
[2025-04-13 13:55:16.145440] 1
[2025-04-13 13:55:16.145440] 9
[2025-04-13 13:55:16.145440] 16
[2025-04-13 13:55:16.145440] 4
[2025-04-13 13:55:16.145440] 0
[2025-04-13 13:55:16.145440] 0
[2025-04-13 13:55:16.146419] 0
[2025-04-13 13:55:16.156023] 0
[2025-04-13 13:55:16.156023] 0
[2025-04-13 13:55:16.156023] 4
[2025-04-13 13:55:16.156023] 25
[2025-04-13 13:55:16.156023] 25
[2025-04-13 13:55:16.156023] 36
[2025-04-13 13:55:16.156023] 25
[2025-04-13 13:55:16.156023] 16
[2025-04-13 13:55:16.156023] 4
[2025-04-13 13:55:16.165978] 0
[2025-04-13 13:55:16.165978] 4
[2025-04-13 13:55:16.165978] 16
[2025-04-13 13:55:16.165978] 36
[2025-04-13 13:55:16.165978] 25
[2025-04-13 13:55:16.165978] 9
[2025-04-13 13:55:16.166892] 1
[2025-04-13 13:55:16.166892] 1
[2025-04-13 13:55:16.166892] 25
[2025-04-13 13:55:16.175259] 64
[2025-04-13 13:55:16.175259] 121
[2025-04-13 13:55:16.175259] 144
[2025-04-13 13:55:16.175259] 121
[2025-04-13 13:55:16.175259] 81
[2025-04-13 13:55:16.175259] 25
[2025-04-13 13:55:16.175259] 9
[2025-04-13 13:55:16.176298] 4
[2025-04-13 13:55:16.186286] 1
[2025-04-13 13:55:16.186286] 36
[2025-04-13 13:55:16.186286] 81
[2025-04-13 13:55:16.186286] 81
[2025-04-13 13:55:16.186286] 36
[2025-04-13 13:55:16.186286] 9
[2025-04-13 13:55:16.186286] 9
[2025-04-13 13:55:16.186286] 4
[2025-04-13 13:55:16.186286] 0
[2025-04-13 13:55:16.194609] 9
[2025-04-13 13:55:16.194609] 36
[2025-04-13 13:55:16.194609] 81
[2025-04-13 13:55:16.194609] 144
[2025-04-13 13:55:16.196987] 169
[2025-04-13 13:55:16.196987] 144
[2025-04-13 13:55:16.196987] 100
[2025-04-13 13:55:16.203936] 36
[2025-04-13 13:55:16.203936] 0
[2025-04-13 13:55:16.203936] 9
[2025-04-13 13:55:16.203936] 49
[2025-04-13 13:55:16.203936] 121
[2025-04-13 13:55:16.203936] 121
[2025-04-13 13:55:16.203936] 81
[2025-04-13 13:55:16.204943] 16
[2025-04-13 13:55:16.204943] 0
[2025-04-13 13:55:16.212055] 25
[2025-04-13 13:55:16.212055] 64
[2025-04-13 13:55:16.212055] 100
[2025-04-13 13:55:16.212912] 144
[2025-04-13 13:55:16.212912] 144
[2025-04-13 13:55:16.212912] 121
[2025-04-13 13:55:16.212912] 49
[2025-04-13 13:55:16.222286] 16
[2025-04-13 13:55:16.222286] 1
[2025-04-13 13:55:16.222286] 1
[2025-04-13 13:55:16.222286] 16
[2025-04-13 13:55:16.222286] 49
[2025-04-13 13:55:16.222286] 64
[2025-04-13 13:55:16.222286] 49
[2025-04-13 13:55:16.222286] 9
[2025-04-13 13:55:16.223327] 1
[2025-04-13 13:55:16.231546] 0
[2025-04-13 13:55:16.231546] 4
[2025-04-13 13:55:16.231546] 25
[2025-04-13 13:55:16.232553] 81
[2025-04-13 13:55:16.232553] 144
[2025-04-13 13:55:16.232553] 144
[2025-04-13 13:55:16.232553] 100
[2025-04-13 13:55:16.241552] 36
[2025-04-13 13:55:16.242554] 9
[2025-04-13 13:55:16.242554] 1
[2025-04-13 13:55:16.242554] 1
[2025-04-13 13:55:16.242554] 16
[2025-04-13 13:55:16.242554] 64
[2025-04-13 13:55:16.243553] 81
[2025-04-13 13:55:16.243553] 81
[2025-04-13 13:55:16.243553] 36
[2025-04-13 13:55:16.251684] 4
[2025-04-13 13:55:16.251684] 1
[2025-04-13 13:55:16.251684] 36
[2025-04-13 13:55:16.251684] 64
[2025-04-13 13:55:16.251684] 81
[2025-04-13 13:55:16.251684] 121
[2025-04-13 13:55:16.251684] 121
[2025-04-13 13:55:16.252633] 100
[2025-04-13 13:55:16.261143] 81
[2025-04-13 13:55:16.261143] 25
[2025-04-13 13:55:16.261610] 1
[2025-04-13 13:55:16.261610] 1
[2025-04-13 13:55:16.261610] 16
[2025-04-13 13:55:16.261610] 49
[2025-04-13 13:55:16.261610] 49
[2025-04-13 13:55:16.261610] 81
[2025-04-13 13:55:16.270681] 49
[2025-04-13 13:55:16.270681] 16
[2025-04-13 13:55:16.270681] 0
[2025-04-13 13:55:16.270681] 9
[2025-04-13 13:55:16.270681] 49
[2025-04-13 13:55:16.270681] 100
[2025-04-13 13:55:16.270681] 121
[2025-04-13 13:55:16.270681] 169
[2025-04-13 13:55:16.279148] 144
[2025-04-13 13:55:16.279148] 100
[2025-04-13 13:55:16.279148] 81
[2025-04-13 13:55:16.279148] 25
[2025-04-13 13:55:16.280005] 0
[2025-04-13 13:55:16.280005] 25
[2025-04-13 13:55:16.280005] 81
[2025-04-13 13:55:16.280005] 100
[2025-04-13 13:55:16.290110] 121
[2025-04-13 13:55:16.290110] 100
[2025-04-13 13:55:16.290110] 81
[2025-04-13 13:55:16.290110] 25
[2025-04-13 13:55:16.290110] 1
[2025-04-13 13:55:16.290110] 64
[2025-04-13 13:55:16.290110] 144
[2025-04-13 13:55:16.296735] 256
[2025-04-13 13:55:16.296735] 289
[2025-04-13 13:55:16.296735] 289
[2025-04-13 13:55:16.296735] 196
[2025-04-13 13:55:16.296735] 121
[2025-04-13 13:55:16.296735] 36
[2025-04-13 13:55:16.296735] 0
[2025-04-13 13:55:16.304593] 25
[2025-04-13 13:55:16.304593] 121
[2025-04-13 13:55:16.304593] 225
[2025-04-13 13:55:16.304593] 289
[2025-04-13 13:55:16.305595] 225
[2025-04-13 13:55:16.305595] 100
[2025-04-13 13:55:16.305595] 16
[2025-04-13 13:55:16.313626] 4
[2025-04-13 13:55:16.313626] 25
[2025-04-13 13:55:16.313626] 64
[2025-04-13 13:55:16.313626] 121
[2025-04-13 13:55:16.313626] 196
[2025-04-13 13:55:16.313626] 289
[2025-04-13 13:55:16.313626] 324
[2025-04-13 13:55:16.322121] 225
[2025-04-13 13:55:16.322121] 100
[2025-04-13 13:55:16.322121] 16
[2025-04-13 13:55:16.322121] 1
[2025-04-13 13:55:16.322121] 25
[2025-04-13 13:55:16.322121] 81
[2025-04-13 13:55:16.322121] 121
[2025-04-13 13:55:16.331181] 144
[2025-04-13 13:55:16.331181] 100
[2025-04-13 13:55:16.331181] 36
[2025-04-13 13:55:16.332177] 1
[2025-04-13 13:55:16.332177] 4
[2025-04-13 13:55:16.332177] 36
[2025-04-13 13:55:16.332177] 64
[2025-04-13 13:55:16.332177] 100
[2025-04-13 13:55:16.340172] 121
[2025-04-13 13:55:16.340172] 121
[2025-04-13 13:55:16.340172] 100
[2025-04-13 13:55:16.340172] 49
[2025-04-13 13:55:16.340172] 1
[2025-04-13 13:55:16.340172] 4
[2025-04-13 13:55:16.341167] 16
[2025-04-13 13:55:16.341167] 25
[2025-04-13 13:55:16.351974] 9
[2025-04-13 13:55:16.351974] 1
[2025-04-13 13:55:16.351974] 0
[2025-04-13 13:55:16.351974] 0
[2025-04-13 13:55:16.351974] 0
[2025-04-13 13:55:16.351974] 0
[2025-04-13 13:55:16.351974] 0
[2025-04-13 13:55:16.351974] 1
[2025-04-13 13:55:16.351974] 16
[2025-04-13 13:55:16.351974] 49
[2025-04-13 13:55:16.361124] 81
[2025-04-13 13:55:16.361124] 64
[2025-04-13 13:55:16.361124] 49
[2025-04-13 13:55:16.361124] 9
[2025-04-13 13:55:16.361124] 0
[2025-04-13 13:55:16.362013] 16
[2025-04-13 13:55:16.362013] 36
[2025-04-13 13:55:16.362013] 36
[2025-04-13 13:55:16.362013] 16
[2025-04-13 13:55:16.371256] 0
[2025-04-13 13:55:16.371256] 1
[2025-04-13 13:55:16.371256] 9
[2025-04-13 13:55:16.371256] 25
[2025-04-13 13:55:16.372320] 49
[2025-04-13 13:55:16.372320] 100
[2025-04-13 13:55:16.372320] 100
[2025-04-13 13:55:16.372320] 49
[2025-04-13 13:55:16.382367] 9
[2025-04-13 13:55:16.383298] 1
[2025-04-13 13:55:16.383298] 4
[2025-04-13 13:55:16.383298] 16
[2025-04-13 13:55:16.383298] 0
[2025-04-13 13:55:16.383298] 16
[2025-04-13 13:55:16.383298] 121
[2025-04-13 13:55:16.383298] 169
[2025-04-13 13:55:16.389640] 100
[2025-04-13 13:55:16.389640] 9
[2025-04-13 13:55:16.389640] 4
[2025-04-13 13:55:16.389640] 64
[2025-04-13 13:55:16.389640] 100
[2025-04-13 13:55:16.389640] 121
[2025-04-13 13:55:16.389640] 121
[2025-04-13 13:55:16.389640] 100
[2025-04-13 13:55:16.399937] 81
[2025-04-13 13:55:16.399937] 49
[2025-04-13 13:55:16.399937] 36
[2025-04-13 13:55:16.399937] 9
[2025-04-13 13:55:16.399937] 0
[2025-04-13 13:55:16.399937] 25
[2025-04-13 13:55:16.399937] 81
[2025-04-13 13:55:16.399937] 121
[2025-04-13 13:55:16.407936] 121
[2025-04-13 13:55:16.407936] 81
[2025-04-13 13:55:16.407936] 16
[2025-04-13 13:55:16.408825] 1
[2025-04-13 13:55:16.408825] 49
[2025-04-13 13:55:16.408825] 121
[2025-04-13 13:55:16.408825] 121
[2025-04-13 13:55:16.416787] 121
[2025-04-13 13:55:16.416787] 144
[2025-04-13 13:55:16.416787] 169
[2025-04-13 13:55:16.416787] 169
[2025-04-13 13:55:16.416787] 100
[2025-04-13 13:55:16.416787] 49
[2025-04-13 13:55:16.416787] 0
[2025-04-13 13:55:16.425039] 36
[2025-04-13 13:55:16.425039] 169
[2025-04-13 13:55:16.425039] 256
[2025-04-13 13:55:16.425039] 256
[2025-04-13 13:55:16.426040] 169
[2025-04-13 13:55:16.426040] 64
[2025-04-13 13:55:16.426040] 1
[2025-04-13 13:55:16.426040] 16
[2025-04-13 13:55:16.433315] 81
[2025-04-13 13:55:16.433315] 144
[2025-04-13 13:55:16.433315] 196
[2025-04-13 13:55:16.433315] 196
[2025-04-13 13:55:16.433315] 169
[2025-04-13 13:55:16.433315] 100
[2025-04-13 13:55:16.442322] 64
[2025-04-13 13:55:16.442322] 16
[2025-04-13 13:55:16.442322] 1
[2025-04-13 13:55:16.442322] 0
[2025-04-13 13:55:16.443307] 16
[2025-04-13 13:55:16.443307] 64
[2025-04-13 13:55:16.443307] 121
[2025-04-13 13:55:16.443307] 121
[2025-04-13 13:55:16.452339] 64
[2025-04-13 13:55:16.452339] 9
[2025-04-13 13:55:16.452339] 0
[2025-04-13 13:55:16.452339] 9
[2025-04-13 13:55:16.452783] 25
[2025-04-13 13:55:16.452783] 49
[2025-04-13 13:55:16.452783] 64
[2025-04-13 13:55:16.452783] 144
[2025-04-13 13:55:16.452783] 256
[2025-04-13 13:55:16.460823] 324
[2025-04-13 13:55:16.460823] 169
[2025-04-13 13:55:16.460823] 9
[2025-04-13 13:55:16.460823] 36
[2025-04-13 13:55:16.460823] 121
[2025-04-13 13:55:16.460823] 196
[2025-04-13 13:55:16.460823] 144
[2025-04-13 13:55:16.469817] 100
[2025-04-13 13:55:16.469817] 36
[2025-04-13 13:55:16.469817] 0
[2025-04-13 13:55:16.469817] 4
[2025-04-13 13:55:16.469817] 36
[2025-04-13 13:55:16.469817] 81
[2025-04-13 13:55:16.469817] 121
[2025-04-13 13:55:16.479421] 144
[2025-04-13 13:55:16.479421] 121
[2025-04-13 13:55:16.479421] 81
[2025-04-13 13:55:16.479421] 64
[2025-04-13 13:55:16.479421] 25
[2025-04-13 13:55:16.479421] 1
[2025-04-13 13:55:16.479421] 4
[2025-04-13 13:55:16.479421] 49
[2025-04-13 13:55:16.479421] 81
[2025-04-13 13:55:16.489417] 81
[2025-04-13 13:55:16.489417] 64
[2025-04-13 13:55:16.490272] 16
[2025-04-13 13:55:16.490272] 1
[2025-04-13 13:55:16.490272] 9
[2025-04-13 13:55:16.490272] 36
[2025-04-13 13:55:16.490272] 81
[2025-04-13 13:55:16.490272] 121
[2025-04-13 13:55:16.499292] 121
[2025-04-13 13:55:16.499292] 100
[2025-04-13 13:55:16.499292] 81
[2025-04-13 13:55:16.499292] 36
[2025-04-13 13:55:16.499292] 9
[2025-04-13 13:55:16.499292] 0
[2025-04-13 13:55:16.499292] 9
[2025-04-13 13:55:16.499292] 36
[2025-04-13 13:55:16.508553] 64
[2025-04-13 13:55:16.508553] 81
[2025-04-13 13:55:16.508553] 64
[2025-04-13 13:55:16.508553] 16
[2025-04-13 13:55:16.508553] 0
[2025-04-13 13:55:16.509539] 9
[2025-04-13 13:55:16.509539] 36
[2025-04-13 13:55:16.509539] 81
[2025-04-13 13:55:16.517906] 144
[2025-04-13 13:55:16.517906] 169
[2025-04-13 13:55:16.517906] 121
[2025-04-13 13:55:16.517906] 49
[2025-04-13 13:55:16.517906] 25
[2025-04-13 13:55:16.517906] 4
[2025-04-13 13:55:16.518959] 4
[2025-04-13 13:55:16.518959] 36
[2025-04-13 13:55:16.527356] 81
[2025-04-13 13:55:16.527356] 81
[2025-04-13 13:55:16.527356] 49
[2025-04-13 13:55:16.527356] 16
[2025-04-13 13:55:16.527356] 4
[2025-04-13 13:55:16.527356] 1
[2025-04-13 13:55:16.527356] 25
[2025-04-13 13:55:16.527356] 64
[2025-04-13 13:55:16.527356] 100
[2025-04-13 13:55:16.536745] 121
[2025-04-13 13:55:16.536745] 100
[2025-04-13 13:55:16.536745] 81
[2025-04-13 13:55:16.537663] 49
[2025-04-13 13:55:16.537663] 36
[2025-04-13 13:55:16.537663] 25
[2025-04-13 13:55:16.537663] 1
[2025-04-13 13:55:16.537663] 9
[2025-04-13 13:55:16.547129] 81
[2025-04-13 13:55:16.547129] 121
[2025-04-13 13:55:16.547129] 81
[2025-04-13 13:55:16.547129] 16
[2025-04-13 13:55:16.547129] 1
[2025-04-13 13:55:16.547129] 0
[2025-04-13 13:55:16.547129] 0
[2025-04-13 13:55:16.547129] 9
[2025-04-13 13:55:16.556271] 36
[2025-04-13 13:55:16.556271] 64
[2025-04-13 13:55:16.556271] 121
[2025-04-13 13:55:16.556271] 121
[2025-04-13 13:55:16.556271] 81
[2025-04-13 13:55:16.556271] 49
[2025-04-13 13:55:16.556271] 16
[2025-04-13 13:55:16.556271] 0
[2025-04-13 13:55:16.566279] 9
[2025-04-13 13:55:16.566279] 36
[2025-04-13 13:55:16.567135] 64
[2025-04-13 13:55:16.567135] 49
[2025-04-13 13:55:16.567135] 16
[2025-04-13 13:55:16.567135] 1
[2025-04-13 13:55:16.567135] 0
[2025-04-13 13:55:16.568136] 1
[2025-04-13 13:55:16.570137] 16
[2025-04-13 13:55:16.574898] 64
[2025-04-13 13:55:16.574898] 121
[2025-04-13 13:55:16.574898] 121
[2025-04-13 13:55:16.574898] 100
[2025-04-13 13:55:16.574898] 64
[2025-04-13 13:55:16.574898] 36
[2025-04-13 13:55:16.575786] 16
[2025-04-13 13:55:16.575786] 1
[2025-04-13 13:55:16.583762] 16
[2025-04-13 13:55:16.584778] 64
[2025-04-13 13:55:16.584778] 121
[2025-04-13 13:55:16.584778] 144
[2025-04-13 13:55:16.584778] 64
[2025-04-13 13:55:16.584778] 9
[2025-04-13 13:55:16.584778] 4
[2025-04-13 13:55:16.584778] 36
[2025-04-13 13:55:16.593829] 81
[2025-04-13 13:55:16.593829] 100
[2025-04-13 13:55:16.593829] 121
[2025-04-13 13:55:16.593829] 100
[2025-04-13 13:55:16.593829] 81
[2025-04-13 13:55:16.593829] 64
[2025-04-13 13:55:16.593829] 49
[2025-04-13 13:55:16.603901] 9
[2025-04-13 13:55:16.603901] 1
[2025-04-13 13:55:16.603901] 9
[2025-04-13 13:55:16.604844] 36
[2025-04-13 13:55:16.604844] 64
[2025-04-13 13:55:16.604844] 81
[2025-04-13 13:55:16.604844] 49
[2025-04-13 13:55:16.604844] 4
[2025-04-13 13:55:16.604844] 0
[2025-04-13 13:55:16.611887] 9
[2025-04-13 13:55:16.612855] 25
[2025-04-13 13:55:16.612855] 36
[2025-04-13 13:55:16.612855] 100
[2025-04-13 13:55:16.612855] 196
[2025-04-13 13:55:16.612855] 256
[2025-04-13 13:55:16.612855] 225
[2025-04-13 13:55:16.622029] 64
[2025-04-13 13:55:16.622029] 9
[2025-04-13 13:55:16.622029] 1
[2025-04-13 13:55:16.622029] 16
[2025-04-13 13:55:16.622029] 64
[2025-04-13 13:55:16.622029] 121
[2025-04-13 13:55:16.622029] 169
[2025-04-13 13:55:16.622029] 144
[2025-04-13 13:55:16.630312] 81
[2025-04-13 13:55:16.630312] 9
[2025-04-13 13:55:16.630312] 9
[2025-04-13 13:55:16.630312] 64
[2025-04-13 13:55:16.630312] 121
[2025-04-13 13:55:16.630312] 169
[2025-04-13 13:55:16.631183] 144
[2025-04-13 13:55:16.631183] 121
[2025-04-13 13:55:16.639323] 100
[2025-04-13 13:55:16.640183] 81
[2025-04-13 13:55:16.640183] 36
[2025-04-13 13:55:16.640183] 4
[2025-04-13 13:55:16.640183] 0
[2025-04-13 13:55:16.640183] 36
[2025-04-13 13:55:16.640183] 121
[2025-04-13 13:55:16.649271] 169
[2025-04-13 13:55:16.649271] 81
[2025-04-13 13:55:16.649271] 25
[2025-04-13 13:55:16.649271] 4
[2025-04-13 13:55:16.649271] 0
[2025-04-13 13:55:16.649271] 16
[2025-04-13 13:55:16.649271] 36
[2025-04-13 13:55:16.649271] 81
[2025-04-13 13:55:16.649271] 121
[2025-04-13 13:55:16.658421] 169
[2025-04-13 13:55:16.658421] 144
[2025-04-13 13:55:16.658421] 121
[2025-04-13 13:55:16.658421] 64
[2025-04-13 13:55:16.658421] 16
[2025-04-13 13:55:16.658421] 1
[2025-04-13 13:55:16.658421] 36
[2025-04-13 13:55:16.667961] 100
[2025-04-13 13:55:16.667961] 121
[2025-04-13 13:55:16.667961] 81
[2025-04-13 13:55:16.668335] 25
[2025-04-13 13:55:16.668335] 0
[2025-04-13 13:55:16.668335] 4
[2025-04-13 13:55:16.668335] 16
[2025-04-13 13:55:16.668335] 36
[2025-04-13 13:55:16.677123] 36
[2025-04-13 13:55:16.677123] 64
[2025-04-13 13:55:16.677123] 64
[2025-04-13 13:55:16.677123] 49
[2025-04-13 13:55:16.677123] 64
[2025-04-13 13:55:16.678131] 81
[2025-04-13 13:55:16.678131] 49
[2025-04-13 13:55:16.678131] 9
[2025-04-13 13:55:16.678131] 4
[2025-04-13 13:55:16.687795] 49
[2025-04-13 13:55:16.687795] 100
[2025-04-13 13:55:16.687795] 81
[2025-04-13 13:55:16.687795] 36
[2025-04-13 13:55:16.687795] 4
[2025-04-13 13:55:16.687795] 1
[2025-04-13 13:55:16.687795] 25
[2025-04-13 13:55:16.687795] 49
[2025-04-13 13:55:16.696963] 49
[2025-04-13 13:55:16.696963] 64
[2025-04-13 13:55:16.696963] 64
[2025-04-13 13:55:16.697976] 64
[2025-04-13 13:55:16.697976] 49
[2025-04-13 13:55:16.697976] 25
[2025-04-13 13:55:16.697976] 9
[2025-04-13 13:55:16.697976] 0
[2025-04-13 13:55:16.697976] 9
[2025-04-13 13:55:16.707425] 49
[2025-04-13 13:55:16.707425] 81
[2025-04-13 13:55:16.707425] 81
[2025-04-13 13:55:16.707425] 49
[2025-04-13 13:55:16.707425] 9
[2025-04-13 13:55:16.707425] 0
[2025-04-13 13:55:16.707425] 9
[2025-04-13 13:55:16.708102] 49
[2025-04-13 13:55:16.716247] 121
[2025-04-13 13:55:16.717108] 144
[2025-04-13 13:55:16.717108] 144
[2025-04-13 13:55:16.717108] 100
[2025-04-13 13:55:16.717108] 64
[2025-04-13 13:55:16.717108] 25
[2025-04-13 13:55:16.717108] 4
[2025-04-13 13:55:16.717108] 1
[2025-04-13 13:55:16.725576] 16
[2025-04-13 13:55:16.725576] 64
[2025-04-13 13:55:16.725576] 81
[2025-04-13 13:55:16.725576] 100
[2025-04-13 13:55:16.726618] 64
[2025-04-13 13:55:16.726618] 25
[2025-04-13 13:55:16.726618] 4
[2025-04-13 13:55:16.726618] 81
[2025-04-13 13:55:16.734676] 196
[2025-04-13 13:55:16.734676] 169
[2025-04-13 13:55:16.734676] 100
[2025-04-13 13:55:16.734676] 64
[2025-04-13 13:55:16.734676] 36
[2025-04-13 13:55:16.734676] 16
[2025-04-13 13:55:16.734676] 9
[2025-04-13 13:55:16.734676] 4
[2025-04-13 13:55:16.744966] 4
[2025-04-13 13:55:16.744966] 1
[2025-04-13 13:55:16.744966] 36
[2025-04-13 13:55:16.744966] 100
[2025-04-13 13:55:16.744966] 144
[2025-04-13 13:55:16.744966] 64
[2025-04-13 13:55:16.744966] 9
[2025-04-13 13:55:16.744966] 0
[2025-04-13 13:55:16.752888] 16
[2025-04-13 13:55:16.752888] 64
[2025-04-13 13:55:16.752888] 100
[2025-04-13 13:55:16.752888] 121
[2025-04-13 13:55:16.752888] 144
[2025-04-13 13:55:16.755667] 100
[2025-04-13 13:55:16.755667] 36
[2025-04-13 13:55:16.763693] 9
[2025-04-13 13:55:16.763693] 1
[2025-04-13 13:55:16.763693] 1
[2025-04-13 13:55:16.763693] 9
[2025-04-13 13:55:16.763693] 25
[2025-04-13 13:55:16.763693] 49
[2025-04-13 13:55:16.763693] 64
[2025-04-13 13:55:16.763693] 64
[2025-04-13 13:55:16.763693] 16
[2025-04-13 13:55:16.771826] 1
[2025-04-13 13:55:16.771826] 25
[2025-04-13 13:55:16.771826] 64
[2025-04-13 13:55:16.771826] 100
[2025-04-13 13:55:16.771826] 100
[2025-04-13 13:55:16.771826] 100
[2025-04-13 13:55:16.772707] 121
[2025-04-13 13:55:16.781133] 100
[2025-04-13 13:55:16.781133] 81
[2025-04-13 13:55:16.781133] 49
[2025-04-13 13:55:16.781133] 4
[2025-04-13 13:55:16.781133] 9
[2025-04-13 13:55:16.781133] 64
[2025-04-13 13:55:16.781133] 144
[2025-04-13 13:55:16.782016] 196
[2025-04-13 13:55:16.790011] 121
[2025-04-13 13:55:16.790011] 49
[2025-04-13 13:55:16.790011] 0
[2025-04-13 13:55:16.790011] 16
[2025-04-13 13:55:16.790011] 81
[2025-04-13 13:55:16.791010] 144
[2025-04-13 13:55:16.791010] 169
[2025-04-13 13:55:16.799008] 144
[2025-04-13 13:55:16.799008] 100
[2025-04-13 13:55:16.799008] 49
[2025-04-13 13:55:16.799008] 25
[2025-04-13 13:55:16.799008] 4
[2025-04-13 13:55:16.799008] 0
[2025-04-13 13:55:16.799008] 25
[2025-04-13 13:55:16.799008] 81
[2025-04-13 13:55:16.808017] 121
[2025-04-13 13:55:16.808017] 144
[2025-04-13 13:55:16.808017] 64
[2025-04-13 13:55:16.808017] 9
[2025-04-13 13:55:16.808017] 1
[2025-04-13 13:55:16.808017] 36
[2025-04-13 13:55:16.809067] 64
[2025-04-13 13:55:16.809067] 100
[2025-04-13 13:55:16.817157] 144
[2025-04-13 13:55:16.817157] 144
[2025-04-13 13:55:16.817157] 144
[2025-04-13 13:55:16.817157] 121
[2025-04-13 13:55:16.817157] 81
[2025-04-13 13:55:16.817157] 25
[2025-04-13 13:55:16.817157] 0
[2025-04-13 13:55:16.817157] 36
[2025-04-13 13:55:16.825844] 121
[2025-04-13 13:55:16.825844] 196
[2025-04-13 13:55:16.826734] 169
[2025-04-13 13:55:16.826734] 100
[2025-04-13 13:55:16.826734] 36
[2025-04-13 13:55:16.826734] 0
[2025-04-13 13:55:16.826734] 49
[2025-04-13 13:55:16.834796] 144
[2025-04-13 13:55:16.834796] 225
[2025-04-13 13:55:16.834796] 256
[2025-04-13 13:55:16.834796] 169
[2025-04-13 13:55:16.834796] 81
[2025-04-13 13:55:16.834796] 36
[2025-04-13 13:55:16.834796] 25
[2025-04-13 13:55:16.844179] 9
[2025-04-13 13:55:16.844179] 0
[2025-04-13 13:55:16.844179] 16
[2025-04-13 13:55:16.844179] 100
[2025-04-13 13:55:16.844179] 196
[2025-04-13 13:55:16.844179] 169
[2025-04-13 13:55:16.844179] 81
[2025-04-13 13:55:16.845225] 9
[2025-04-13 13:55:16.851853] 9
[2025-04-13 13:55:16.851853] 64
[2025-04-13 13:55:16.851853] 100
[2025-04-13 13:55:16.852888] 100
[2025-04-13 13:55:16.852888] 100
[2025-04-13 13:55:16.852888] 121
[2025-04-13 13:55:16.852888] 100
[2025-04-13 13:55:16.861971] 64
[2025-04-13 13:55:16.861971] 36
[2025-04-13 13:55:16.861971] 9
[2025-04-13 13:55:16.861971] 0
[2025-04-13 13:55:16.861971] 36
[2025-04-13 13:55:16.861971] 100
[2025-04-13 13:55:16.861971] 121
[2025-04-13 13:55:16.861971] 81
[2025-04-13 13:55:16.870438] 25
[2025-04-13 13:55:16.870438] 0
[2025-04-13 13:55:16.870438] 4
[2025-04-13 13:55:16.870438] 16
[2025-04-13 13:55:16.870438] 81
[2025-04-13 13:55:16.870857] 121
[2025-04-13 13:55:16.870857] 196
[2025-04-13 13:55:16.870857] 225
[2025-04-13 13:55:16.879760] 169
[2025-04-13 13:55:16.879760] 64
[2025-04-13 13:55:16.879760] 1
[2025-04-13 13:55:16.879760] 9
[2025-04-13 13:55:16.879760] 36
[2025-04-13 13:55:16.880767] 64
[2025-04-13 13:55:16.880767] 81
[2025-04-13 13:55:16.880767] 100
[2025-04-13 13:55:16.888768] 81
[2025-04-13 13:55:16.888768] 36
[2025-04-13 13:55:16.888768] 1
[2025-04-13 13:55:16.888768] 9
[2025-04-13 13:55:16.889766] 36
[2025-04-13 13:55:16.889766] 100
[2025-04-13 13:55:16.889766] 144
[2025-04-13 13:55:16.898489] 144
[2025-04-13 13:55:16.898489] 121
[2025-04-13 13:55:16.898777] 81
[2025-04-13 13:55:16.898777] 49
[2025-04-13 13:55:16.898777] 16
[2025-04-13 13:55:16.898777] 0
[2025-04-13 13:55:16.898777] 9
[2025-04-13 13:55:16.898777] 49
[2025-04-13 13:55:16.898777] 81
[2025-04-13 13:55:16.907127] 100
[2025-04-13 13:55:16.908117] 64
[2025-04-13 13:55:16.908117] 25
[2025-04-13 13:55:16.908117] 0
[2025-04-13 13:55:16.908117] 25
[2025-04-13 13:55:16.908117] 64
[2025-04-13 13:55:16.908117] 121
[2025-04-13 13:55:16.918123] 121
[2025-04-13 13:55:16.918123] 100
[2025-04-13 13:55:16.918123] 64
[2025-04-13 13:55:16.918123] 36
[2025-04-13 13:55:16.918123] 16
[2025-04-13 13:55:16.918123] 4
[2025-04-13 13:55:16.918123] 1
[2025-04-13 13:55:16.918123] 1
[2025-04-13 13:55:16.918123] 1
[2025-04-13 13:55:16.927948] 0
[2025-04-13 13:55:16.927948] 0
[2025-04-13 13:55:16.927948] 9
[2025-04-13 13:55:16.927948] 36
[2025-04-13 13:55:16.928987] 49
[2025-04-13 13:55:16.928987] 25
[2025-04-13 13:55:16.928987] 1
[2025-04-13 13:55:16.928987] 9
[2025-04-13 13:55:16.928987] 64
[2025-04-13 13:55:16.937104] 121
[2025-04-13 13:55:16.937104] 144
[2025-04-13 13:55:16.937104] 144
[2025-04-13 13:55:16.937104] 100
[2025-04-13 13:55:16.937104] 49
[2025-04-13 13:55:16.937104] 9
[2025-04-13 13:55:16.937104] 4
[2025-04-13 13:55:16.937104] 49
[2025-04-13 13:55:16.947104] 100
[2025-04-13 13:55:16.947104] 100
[2025-04-13 13:55:16.947104] 49
[2025-04-13 13:55:16.947104] 9
[2025-04-13 13:55:16.947104] 0
[2025-04-13 13:55:16.947104] 9
[2025-04-13 13:55:16.947104] 25
[2025-04-13 13:55:16.947987] 36
[2025-04-13 13:55:16.955483] 64
[2025-04-13 13:55:16.955483] 100
[2025-04-13 13:55:16.956337] 121
[2025-04-13 13:55:16.956337] 100
[2025-04-13 13:55:16.956337] 81
[2025-04-13 13:55:16.956337] 49
[2025-04-13 13:55:16.956337] 4
[2025-04-13 13:55:16.956337] 4
[2025-04-13 13:55:16.965337] 49
[2025-04-13 13:55:16.965337] 121
[2025-04-13 13:55:16.965337] 121
[2025-04-13 13:55:16.965337] 81
[2025-04-13 13:55:16.965337] 25
[2025-04-13 13:55:16.965337] 4
[2025-04-13 13:55:16.965337] 0
[2025-04-13 13:55:16.965337] 16
[2025-04-13 13:55:16.973430] 49
[2025-04-13 13:55:16.973430] 100
[2025-04-13 13:55:16.973430] 144
[2025-04-13 13:55:16.973430] 169
[2025-04-13 13:55:16.973430] 144
[2025-04-13 13:55:16.974487] 100
[2025-04-13 13:55:16.982547] 49
[2025-04-13 13:55:16.982547] 4
[2025-04-13 13:55:16.983409] 1
[2025-04-13 13:55:16.983409] 25
[2025-04-13 13:55:16.983409] 81
[2025-04-13 13:55:16.983409] 121
[2025-04-13 13:55:16.983409] 121
[2025-04-13 13:55:16.983409] 49
[2025-04-13 13:55:16.983409] 9
[2025-04-13 13:55:16.991494] 1
[2025-04-13 13:55:16.992484] 16
[2025-04-13 13:55:16.992484] 49
[2025-04-13 13:55:16.992484] 64
[2025-04-13 13:55:16.992484] 100
[2025-04-13 13:55:16.992484] 121
[2025-04-13 13:55:16.992484] 121
[2025-04-13 13:55:17.001490] 100
[2025-04-13 13:55:17.001490] 49
[2025-04-13 13:55:17.001490] 9
[2025-04-13 13:55:17.001490] 0
[2025-04-13 13:55:17.001490] 16
[2025-04-13 13:55:17.001490] 64
[2025-04-13 13:55:17.001490] 81
[2025-04-13 13:55:17.001490] 81
[2025-04-13 13:55:17.010668] 36
[2025-04-13 13:55:17.010668] 9
[2025-04-13 13:55:17.010668] 0
[2025-04-13 13:55:17.011676] 16
[2025-04-13 13:55:17.011676] 64
[2025-04-13 13:55:17.011676] 169
[2025-04-13 13:55:17.011676] 169
[2025-04-13 13:55:17.011676] 64
[2025-04-13 13:55:17.011676] 4
[2025-04-13 13:55:17.021423] 4
[2025-04-13 13:55:17.021423] 25
[2025-04-13 13:55:17.021423] 36
[2025-04-13 13:55:17.021423] 9
[2025-04-13 13:55:17.021423] 1
[2025-04-13 13:55:17.021423] 36
[2025-04-13 13:55:17.021423] 100
[2025-04-13 13:55:17.021423] 100
[2025-04-13 13:55:17.030567] 64
[2025-04-13 13:55:17.030567] 9
[2025-04-13 13:55:17.030567] 1
[2025-04-13 13:55:17.030567] 25
[2025-04-13 13:55:17.030567] 64
[2025-04-13 13:55:17.030567] 81
[2025-04-13 13:55:17.030567] 81
[2025-04-13 13:55:17.030567] 100
[2025-04-13 13:55:17.040206] 81
[2025-04-13 13:55:17.040206] 81
[2025-04-13 13:55:17.040206] 49
[2025-04-13 13:55:17.040206] 16
[2025-04-13 13:55:17.040206] 0
[2025-04-13 13:55:17.040206] 16
[2025-04-13 13:55:17.040206] 81
[2025-04-13 13:55:17.040826] 169
[2025-04-13 13:55:17.048130] 121
[2025-04-13 13:55:17.048989] 36
[2025-04-13 13:55:17.048989] 1
[2025-04-13 13:55:17.048989] 16
[2025-04-13 13:55:17.048989] 64
[2025-04-13 13:55:17.048989] 100
[2025-04-13 13:55:17.048989] 100
[2025-04-13 13:55:17.057998] 144
[2025-04-13 13:55:17.058989] 121
[2025-04-13 13:55:17.058989] 64
[2025-04-13 13:55:17.058989] 25
[2025-04-13 13:55:17.058989] 9
[2025-04-13 13:55:17.058989] 1
[2025-04-13 13:55:17.058989] 4
[2025-04-13 13:55:17.058989] 25
[2025-04-13 13:55:17.058989] 64
[2025-04-13 13:55:17.067128] 121
[2025-04-13 13:55:17.067128] 100
[2025-04-13 13:55:17.067128] 64
[2025-04-13 13:55:17.067128] 9
[2025-04-13 13:55:17.067128] 4
[2025-04-13 13:55:17.068131] 49
[2025-04-13 13:55:17.068131] 81
[2025-04-13 13:55:17.068131] 121
[2025-04-13 13:55:17.076132] 121
[2025-04-13 13:55:17.077133] 144
[2025-04-13 13:55:17.077133] 121
[2025-04-13 13:55:17.077133] 64
[2025-04-13 13:55:17.077133] 49
[2025-04-13 13:55:17.077133] 9
[2025-04-13 13:55:17.078132] 4
[2025-04-13 13:55:17.086132] 36
[2025-04-13 13:55:17.086132] 81
[2025-04-13 13:55:17.086132] 100
[2025-04-13 13:55:17.086132] 81
[2025-04-13 13:55:17.086132] 36
[2025-04-13 13:55:17.086132] 9
[2025-04-13 13:55:17.086132] 1
[2025-04-13 13:55:17.086132] 16
[2025-04-13 13:55:17.087132] 64
[2025-04-13 13:55:17.095131] 81
[2025-04-13 13:55:17.095131] 121
[2025-04-13 13:55:17.095131] 144
[2025-04-13 13:55:17.096132] 121
[2025-04-13 13:55:17.096132] 81
[2025-04-13 13:55:17.096132] 49
[2025-04-13 13:55:17.096132] 9
[2025-04-13 13:55:17.105130] 1
[2025-04-13 13:55:17.105130] 25
[2025-04-13 13:55:17.106131] 49
[2025-04-13 13:55:17.106131] 49
[2025-04-13 13:55:17.106131] 25
[2025-04-13 13:55:17.106131] 36
[2025-04-13 13:55:17.106131] 25
[2025-04-13 13:55:17.106131] 4
[2025-04-13 13:55:17.107131] 1
[2025-04-13 13:55:17.114131] 16
[2025-04-13 13:55:17.114131] 49
[2025-04-13 13:55:17.114131] 81
[2025-04-13 13:55:17.114131] 100
[2025-04-13 13:55:17.114131] 81
[2025-04-13 13:55:17.114131] 121
[2025-04-13 13:55:17.115164] 144
[2025-04-13 13:55:17.123131] 64
[2025-04-13 13:55:17.123131] 0
[2025-04-13 13:55:17.123131] 49
[2025-04-13 13:55:17.124133] 144
[2025-04-13 13:55:17.124133] 169
[2025-04-13 13:55:17.124133] 144
[2025-04-13 13:55:17.124133] 25
[2025-04-13 13:55:17.124133] 0
[2025-04-13 13:55:17.131135] 16
[2025-04-13 13:55:17.132134] 49
[2025-04-13 13:55:17.132134] 81
[2025-04-13 13:55:17.132134] 100
[2025-04-13 13:55:17.132134] 100
[2025-04-13 13:55:17.132134] 121
[2025-04-13 13:55:17.133174] 121
[2025-04-13 13:55:17.140484] 64
[2025-04-13 13:55:17.140484] 36
[2025-04-13 13:55:17.140484] 1
[2025-04-13 13:55:17.140484] 16
[2025-04-13 13:55:17.140484] 64
[2025-04-13 13:55:17.140484] 100
[2025-04-13 13:55:17.140484] 121
[2025-04-13 13:55:17.140484] 81
[2025-04-13 13:55:17.149364] 36
[2025-04-13 13:55:17.150225] 4
[2025-04-13 13:55:17.150225] 4
[2025-04-13 13:55:17.150225] 36
[2025-04-13 13:55:17.150225] 81
[2025-04-13 13:55:17.150225] 121
[2025-04-13 13:55:17.150225] 169
[2025-04-13 13:55:17.159395] 144
[2025-04-13 13:55:17.159395] 121
[2025-04-13 13:55:17.159395] 81
[2025-04-13 13:55:17.159395] 36
[2025-04-13 13:55:17.159395] 9
[2025-04-13 13:55:17.159395] 0
[2025-04-13 13:55:17.159395] 25
[2025-04-13 13:55:17.159395] 81
[2025-04-13 13:55:17.167956] 121
[2025-04-13 13:55:17.167956] 100
[2025-04-13 13:55:17.167956] 64
[2025-04-13 13:55:17.167956] 16
[2025-04-13 13:55:17.167956] 0
[2025-04-13 13:55:17.167956] 16
[2025-04-13 13:55:17.168943] 49
[2025-04-13 13:55:17.168943] 100
[2025-04-13 13:55:17.177942] 196
[2025-04-13 13:55:17.177942] 196
[2025-04-13 13:55:17.177942] 144
[2025-04-13 13:55:17.177942] 64
[2025-04-13 13:55:17.177942] 25
[2025-04-13 13:55:17.177942] 0
[2025-04-13 13:55:17.177942] 9
[2025-04-13 13:55:17.177942] 36
[2025-04-13 13:55:17.187407] 81
[2025-04-13 13:55:17.187407] 100
[2025-04-13 13:55:17.187407] 64
[2025-04-13 13:55:17.187407] 9
[2025-04-13 13:55:17.187407] 1
[2025-04-13 13:55:17.187407] 16
[2025-04-13 13:55:17.187407] 16
[2025-04-13 13:55:17.187407] 36
[2025-04-13 13:55:17.196840] 49
[2025-04-13 13:55:17.196840] 81
[2025-04-13 13:55:17.196840] 121
[2025-04-13 13:55:17.196840] 81
[2025-04-13 13:55:17.196840] 49
[2025-04-13 13:55:17.196840] 25
[2025-04-13 13:55:17.196840] 9
[2025-04-13 13:55:17.196840] 0
[2025-04-13 13:55:17.205189] 25
[2025-04-13 13:55:17.206039] 100
[2025-04-13 13:55:17.206039] 169
[2025-04-13 13:55:17.206039] 121
[2025-04-13 13:55:17.206039] 36
[2025-04-13 13:55:17.206039] 0
[2025-04-13 13:55:17.206039] 25
[2025-04-13 13:55:17.206039] 64
[2025-04-13 13:55:17.215434] 81
[2025-04-13 13:55:17.215434] 81
[2025-04-13 13:55:17.215434] 81
[2025-04-13 13:55:17.215434] 49
[2025-04-13 13:55:17.215434] 36
[2025-04-13 13:55:17.215434] 25
[2025-04-13 13:55:17.215434] 25
[2025-04-13 13:55:17.215434] 9
[2025-04-13 13:55:17.225583] 0
[2025-04-13 13:55:17.225583] 9
[2025-04-13 13:55:17.225583] 49
[2025-04-13 13:55:17.225583] 81
[2025-04-13 13:55:17.225583] 81
[2025-04-13 13:55:17.225583] 49
[2025-04-13 13:55:17.225583] 1
[2025-04-13 13:55:17.225583] 4
[2025-04-13 13:55:17.225583] 64
[2025-04-13 13:55:17.233876] 121
[2025-04-13 13:55:17.233876] 144
[2025-04-13 13:55:17.233876] 144
[2025-04-13 13:55:17.233876] 100
[2025-04-13 13:55:17.233876] 49
[2025-04-13 13:55:17.233876] 25
[2025-04-13 13:55:17.233876] 9
[2025-04-13 13:55:17.234916] 4
[2025-04-13 13:55:17.244363] 1
[2025-04-13 13:55:17.244363] 25
[2025-04-13 13:55:17.244363] 64
[2025-04-13 13:55:17.244363] 100
[2025-04-13 13:55:17.244363] 100
[2025-04-13 13:55:17.244363] 49
[2025-04-13 13:55:17.244363] 9
[2025-04-13 13:55:17.244363] 0
[2025-04-13 13:55:17.252341] 16
[2025-04-13 13:55:17.253240] 64
[2025-04-13 13:55:17.253240] 81
[2025-04-13 13:55:17.253240] 144
[2025-04-13 13:55:17.253240] 169
[2025-04-13 13:55:17.254221] 144
[2025-04-13 13:55:17.254221] 100
[2025-04-13 13:55:17.262355] 49
[2025-04-13 13:55:17.262355] 9
[2025-04-13 13:55:17.262355] 0
[2025-04-13 13:55:17.262355] 36
[2025-04-13 13:55:17.262355] 81
[2025-04-13 13:55:17.263320] 121
[2025-04-13 13:55:17.263320] 121
[2025-04-13 13:55:17.263320] 64
[2025-04-13 13:55:17.270748] 9
[2025-04-13 13:55:17.270748] 0
[2025-04-13 13:55:17.270748] 25
[2025-04-13 13:55:17.270748] 81
[2025-04-13 13:55:17.270748] 144
[2025-04-13 13:55:17.270748] 144
[2025-04-13 13:55:17.270748] 121
[2025-04-13 13:55:17.270748] 64
[2025-04-13 13:55:17.281009] 36
[2025-04-13 13:55:17.281009] 16
[2025-04-13 13:55:17.281009] 4
[2025-04-13 13:55:17.281009] 0
[2025-04-13 13:55:17.281009] 4
[2025-04-13 13:55:17.281009] 36
[2025-04-13 13:55:17.281009] 64
[2025-04-13 13:55:17.281009] 100
[2025-04-13 13:55:17.289998] 81
[2025-04-13 13:55:17.289998] 36
[2025-04-13 13:55:17.289998] 4
[2025-04-13 13:55:17.289998] 1
[2025-04-13 13:55:17.289998] 36
[2025-04-13 13:55:17.289998] 100
[2025-04-13 13:55:17.289998] 196
[2025-04-13 13:55:17.290997] 225
[2025-04-13 13:55:17.298858] 144
[2025-04-13 13:55:17.298858] 121
[2025-04-13 13:55:17.298858] 169
[2025-04-13 13:55:17.298858] 121
[2025-04-13 13:55:17.298858] 9
[2025-04-13 13:55:17.298858] 49
[2025-04-13 13:55:17.298858] 225
[2025-04-13 13:55:17.308144] 256
[2025-04-13 13:55:17.308144] 196
[2025-04-13 13:55:17.308144] 64
[2025-04-13 13:55:17.308144] 4
[2025-04-13 13:55:17.308144] 4
[2025-04-13 13:55:17.308144] 36
[2025-04-13 13:55:17.308144] 64
[2025-04-13 13:55:17.308144] 81
[2025-04-13 13:55:17.317022] 100
[2025-04-13 13:55:17.317022] 100
[2025-04-13 13:55:17.317022] 81
[2025-04-13 13:55:17.317022] 64
[2025-04-13 13:55:17.317022] 81
[2025-04-13 13:55:17.318036] 25
[2025-04-13 13:55:17.318036] 1
[2025-04-13 13:55:17.318036] 16
[2025-04-13 13:55:17.326052] 81
[2025-04-13 13:55:17.326052] 169
[2025-04-13 13:55:17.326052] 169
[2025-04-13 13:55:17.326052] 81
[2025-04-13 13:55:17.326052] 16
[2025-04-13 13:55:17.326052] 0
[2025-04-13 13:55:17.326052] 25
[2025-04-13 13:55:17.334209] 81
[2025-04-13 13:55:17.334209] 144
[2025-04-13 13:55:17.334209] 196
[2025-04-13 13:55:17.334209] 196
[2025-04-13 13:55:17.334209] 144
[2025-04-13 13:55:17.334209] 64
[2025-04-13 13:55:17.334209] 25
[2025-04-13 13:55:17.334209] 1
[2025-04-13 13:55:17.344352] 4
[2025-04-13 13:55:17.344352] 25
[2025-04-13 13:55:17.344352] 64
[2025-04-13 13:55:17.344352] 81
[2025-04-13 13:55:17.344352] 81
[2025-04-13 13:55:17.344352] 49
[2025-04-13 13:55:17.344352] 16
[2025-04-13 13:55:17.344352] 0
[2025-04-13 13:55:17.352530] 9
[2025-04-13 13:55:17.353552] 36
[2025-04-13 13:55:17.353552] 81
[2025-04-13 13:55:17.353552] 121
[2025-04-13 13:55:17.353552] 169
[2025-04-13 13:55:17.354529] 144
[2025-04-13 13:55:17.354529] 81
[2025-04-13 13:55:17.354529] 49
[2025-04-13 13:55:17.363120] 9
[2025-04-13 13:55:17.363120] 0
[2025-04-13 13:55:17.363120] 4
[2025-04-13 13:55:17.363120] 36
[2025-04-13 13:55:17.363120] 100
[2025-04-13 13:55:17.363120] 121
[2025-04-13 13:55:17.363120] 64
[2025-04-13 13:55:17.363120] 25
[2025-04-13 13:55:17.371129] 1
[2025-04-13 13:55:17.372120] 9
[2025-04-13 13:55:17.372120] 64
[2025-04-13 13:55:17.372120] 121
[2025-04-13 13:55:17.372120] 144
[2025-04-13 13:55:17.372120] 144
[2025-04-13 13:55:17.372120] 100
[2025-04-13 13:55:17.382281] 64
[2025-04-13 13:55:17.382281] 25
[2025-04-13 13:55:17.382281] 4
[2025-04-13 13:55:17.382281] 0
[2025-04-13 13:55:17.382281] 0
[2025-04-13 13:55:17.382281] 1
[2025-04-13 13:55:17.382281] 49
[2025-04-13 13:55:17.382281] 100
[2025-04-13 13:55:17.382281] 100
[2025-04-13 13:55:17.390428] 49
[2025-04-13 13:55:17.390428] 9
[2025-04-13 13:55:17.390428] 1
[2025-04-13 13:55:17.390428] 64
[2025-04-13 13:55:17.390428] 196
[2025-04-13 13:55:17.390428] 196
[2025-04-13 13:55:17.390428] 144
[2025-04-13 13:55:17.390428] 64
[2025-04-13 13:55:17.400408] 25
[2025-04-13 13:55:17.400408] 16
[2025-04-13 13:55:17.400408] 4
[2025-04-13 13:55:17.400408] 0
[2025-04-13 13:55:17.400408] 16
[2025-04-13 13:55:17.401448] 64
[2025-04-13 13:55:17.401448] 121
[2025-04-13 13:55:17.401448] 81
[2025-04-13 13:55:17.411343] 49
[2025-04-13 13:55:17.411343] 25
[2025-04-13 13:55:17.411902] 1
[2025-04-13 13:55:17.411902] 9
[2025-04-13 13:55:17.411902] 49
[2025-04-13 13:55:17.411902] 121
[2025-04-13 13:55:17.411902] 169
[2025-04-13 13:55:17.411902] 169
[2025-04-13 13:55:17.418957] 100
[2025-04-13 13:55:17.418957] 64
[2025-04-13 13:55:17.418957] 36
[2025-04-13 13:55:17.418957] 9
[2025-04-13 13:55:17.418957] 0
[2025-04-13 13:55:17.418957] 16
[2025-04-13 13:55:17.418957] 64
[2025-04-13 13:55:17.418957] 100
[2025-04-13 13:55:17.427958] 100
[2025-04-13 13:55:17.427958] 36
[2025-04-13 13:55:17.427958] 9
[2025-04-13 13:55:17.427958] 1
[2025-04-13 13:55:17.427958] 25
[2025-04-13 13:55:17.427958] 81
[2025-04-13 13:55:17.427958] 100
[2025-04-13 13:55:17.437636] 121
[2025-04-13 13:55:17.437636] 100
[2025-04-13 13:55:17.437636] 100
[2025-04-13 13:55:17.437636] 81
[2025-04-13 13:55:17.437636] 64
[2025-04-13 13:55:17.437636] 36
[2025-04-13 13:55:17.437636] 0
[2025-04-13 13:55:17.437636] 36
[2025-04-13 13:55:17.445676] 121
[2025-04-13 13:55:17.445676] 225
[2025-04-13 13:55:17.445676] 225
[2025-04-13 13:55:17.445676] 81
[2025-04-13 13:55:17.446680] 9
[2025-04-13 13:55:17.446680] 9
[2025-04-13 13:55:17.446680] 64
[2025-04-13 13:55:17.446680] 144
[2025-04-13 13:55:17.454678] 169
[2025-04-13 13:55:17.454678] 144
[2025-04-13 13:55:17.455688] 100
[2025-04-13 13:55:17.455688] 81
[2025-04-13 13:55:17.455688] 49
[2025-04-13 13:55:17.455688] 36
[2025-04-13 13:55:17.455688] 4
[2025-04-13 13:55:17.464684] 4
[2025-04-13 13:55:17.464684] 36
[2025-04-13 13:55:17.464684] 81
[2025-04-13 13:55:17.464684] 100
[2025-04-13 13:55:17.464684] 81
[2025-04-13 13:55:17.464684] 49
[2025-04-13 13:55:17.464684] 25
[2025-04-13 13:55:17.464684] 0
[2025-04-13 13:55:17.464684] 9
[2025-04-13 13:55:17.472846] 64
[2025-04-13 13:55:17.472846] 144
[2025-04-13 13:55:17.472846] 196
[2025-04-13 13:55:17.473791] 196
[2025-04-13 13:55:17.473791] 121
[2025-04-13 13:55:17.473791] 64
[2025-04-13 13:55:17.473791] 36
[2025-04-13 13:55:17.483459] 4
[2025-04-13 13:55:17.483459] 4
[2025-04-13 13:55:17.483459] 36
[2025-04-13 13:55:17.483459] 81
[2025-04-13 13:55:17.483459] 121
[2025-04-13 13:55:17.483459] 81
[2025-04-13 13:55:17.483459] 36
[2025-04-13 13:55:17.484049] 4
[2025-04-13 13:55:17.491866] 1
[2025-04-13 13:55:17.491866] 49
[2025-04-13 13:55:17.491866] 121
[2025-04-13 13:55:17.491866] 169
[2025-04-13 13:55:17.491866] 196
[2025-04-13 13:55:17.492723] 225
[2025-04-13 13:55:17.492723] 121
[2025-04-13 13:55:17.500865] 64
[2025-04-13 13:55:17.500865] 9
[2025-04-13 13:55:17.500865] 0
[2025-04-13 13:55:17.500865] 25
[2025-04-13 13:55:17.500865] 64
[2025-04-13 13:55:17.501723] 100
[2025-04-13 13:55:17.501723] 100
[2025-04-13 13:55:17.501723] 81
[2025-04-13 13:55:17.510816] 36
[2025-04-13 13:55:17.510816] 1
[2025-04-13 13:55:17.510816] 1
[2025-04-13 13:55:17.510816] 25
[2025-04-13 13:55:17.510816] 49
[2025-04-13 13:55:17.510816] 64
[2025-04-13 13:55:17.510816] 81
[2025-04-13 13:55:17.510816] 100
[2025-04-13 13:55:17.521052] 49
[2025-04-13 13:55:17.521052] 36
[2025-04-13 13:55:17.521052] 25
[2025-04-13 13:55:17.521052] 9
[2025-04-13 13:55:17.521052] 1
[2025-04-13 13:55:17.521052] 1
[2025-04-13 13:55:17.521052] 9
[2025-04-13 13:55:17.521052] 36
[2025-04-13 13:55:17.521052] 64
[2025-04-13 13:55:17.530606] 64
[2025-04-13 13:55:17.530606] 25
[2025-04-13 13:55:17.530606] 0
[2025-04-13 13:55:17.530606] 16
[2025-04-13 13:55:17.530606] 49
[2025-04-13 13:55:17.530606] 81
[2025-04-13 13:55:17.530606] 81
[2025-04-13 13:55:17.530606] 81
[2025-04-13 13:55:17.530606] 64
[2025-04-13 13:55:17.539565] 81
[2025-04-13 13:55:17.539565] 81
[2025-04-13 13:55:17.539565] 36
[2025-04-13 13:55:17.540564] 1
[2025-04-13 13:55:17.540564] 16
[2025-04-13 13:55:17.540564] 81
[2025-04-13 13:55:17.540564] 144
[2025-04-13 13:55:17.548580] 121
[2025-04-13 13:55:17.548580] 81
[2025-04-13 13:55:17.548580] 25
[2025-04-13 13:55:17.548580] 0
[2025-04-13 13:55:17.548580] 36
[2025-04-13 13:55:17.549561] 100
[2025-04-13 13:55:17.549561] 144
[2025-04-13 13:55:17.549561] 169
[2025-04-13 13:55:17.558222] 144
[2025-04-13 13:55:17.558222] 81
[2025-04-13 13:55:17.558222] 49
[2025-04-13 13:55:17.558222] 16
[2025-04-13 13:55:17.558222] 1
[2025-04-13 13:55:17.558222] 1
[2025-04-13 13:55:17.558222] 25
[2025-04-13 13:55:17.558222] 64
[2025-04-13 13:55:17.567169] 100
[2025-04-13 13:55:17.567169] 64
[2025-04-13 13:55:17.568201] 16
[2025-04-13 13:55:17.568201] 0
[2025-04-13 13:55:17.568201] 9
[2025-04-13 13:55:17.568201] 25
[2025-04-13 13:55:17.568201] 36
[2025-04-13 13:55:17.568201] 16
[2025-04-13 13:55:17.568201] 9
[2025-04-13 13:55:17.577349] 49
[2025-04-13 13:55:17.577349] 121
[2025-04-13 13:55:17.577349] 289
[2025-04-13 13:55:17.577349] 289
[2025-04-13 13:55:17.577349] 100
[2025-04-13 13:55:17.577349] 1
[2025-04-13 13:55:17.577349] 49
[2025-04-13 13:55:17.585499] 121
[2025-04-13 13:55:17.585499] 169
[2025-04-13 13:55:17.585499] 169
[2025-04-13 13:55:17.585499] 100
[2025-04-13 13:55:17.585499] 36
[2025-04-13 13:55:17.585499] 1
[2025-04-13 13:55:17.585499] 4
[2025-04-13 13:55:17.594292] 25
[2025-04-13 13:55:17.594292] 81
[2025-04-13 13:55:17.594292] 121
[2025-04-13 13:55:17.594292] 121
[2025-04-13 13:55:17.594292] 121
[2025-04-13 13:55:17.594292] 144
[2025-04-13 13:55:17.594292] 121
[2025-04-13 13:55:17.603048] 36
[2025-04-13 13:55:17.603048] 0
[2025-04-13 13:55:17.603048] 25
[2025-04-13 13:55:17.603048] 100
[2025-04-13 13:55:17.603048] 169
[2025-04-13 13:55:17.603048] 144
[2025-04-13 13:55:17.603048] 81
[2025-04-13 13:55:17.603048] 9
[2025-04-13 13:55:17.611199] 9
[2025-04-13 13:55:17.612056] 64
[2025-04-13 13:55:17.612056] 121
[2025-04-13 13:55:17.612056] 144
[2025-04-13 13:55:17.612056] 169
[2025-04-13 13:55:17.612056] 144
[2025-04-13 13:55:17.612056] 81
[2025-04-13 13:55:17.621333] 36
[2025-04-13 13:55:17.621333] 9
[2025-04-13 13:55:17.621333] 0
[2025-04-13 13:55:17.621333] 9
[2025-04-13 13:55:17.621333] 49
[2025-04-13 13:55:17.621333] 100
[2025-04-13 13:55:17.621333] 100
[2025-04-13 13:55:17.621333] 49
[2025-04-13 13:55:17.629738] 25
[2025-04-13 13:55:17.629738] 0
[2025-04-13 13:55:17.629738] 16
[2025-04-13 13:55:17.629738] 64
[2025-04-13 13:55:17.630738] 100
[2025-04-13 13:55:17.630738] 100
[2025-04-13 13:55:17.630738] 100
[2025-04-13 13:55:17.630738] 100
[2025-04-13 13:55:17.638727] 100
[2025-04-13 13:55:17.638727] 64
[2025-04-13 13:55:17.639715] 25
[2025-04-13 13:55:17.639715] 4
[2025-04-13 13:55:17.639715] 9
[2025-04-13 13:55:17.639715] 49
[2025-04-13 13:55:17.639715] 100
[2025-04-13 13:55:17.648401] 121
[2025-04-13 13:55:17.648401] 100
[2025-04-13 13:55:17.648401] 36
[2025-04-13 13:55:17.648401] 9
[2025-04-13 13:55:17.648401] 1
[2025-04-13 13:55:17.648401] 16
[2025-04-13 13:55:17.648401] 49
[2025-04-13 13:55:17.648401] 100
[2025-04-13 13:55:17.656465] 169
[2025-04-13 13:55:17.656465] 169
[2025-04-13 13:55:17.657396] 121
[2025-04-13 13:55:17.657396] 100
[2025-04-13 13:55:17.657396] 81
[2025-04-13 13:55:17.657396] 36
[2025-04-13 13:55:17.657396] 0
[2025-04-13 13:55:17.657396] 64
[2025-04-13 13:55:17.666107] 169
[2025-04-13 13:55:17.666107] 169
[2025-04-13 13:55:17.666107] 121
[2025-04-13 13:55:17.666107] 81
[2025-04-13 13:55:17.666107] 25
[2025-04-13 13:55:17.666107] 0
[2025-04-13 13:55:17.666107] 36
[2025-04-13 13:55:17.673701] 100
[2025-04-13 13:55:17.673701] 169
[2025-04-13 13:55:17.673701] 144
[2025-04-13 13:55:17.673701] 144
[2025-04-13 13:55:17.673701] 169
[2025-04-13 13:55:17.674590] 169
[2025-04-13 13:55:17.674590] 81
[2025-04-13 13:55:17.682701] 4
[2025-04-13 13:55:17.682701] 9
[2025-04-13 13:55:17.682701] 81
[2025-04-13 13:55:17.682701] 144
[2025-04-13 13:55:17.682701] 144
[2025-04-13 13:55:17.682701] 100
[2025-04-13 13:55:17.683589] 36
[2025-04-13 13:55:17.683589] 0
[2025-04-13 13:55:17.691892] 9
[2025-04-13 13:55:17.692906] 36
[2025-04-13 13:55:17.692906] 64
[2025-04-13 13:55:17.692906] 100
[2025-04-13 13:55:17.692906] 121
[2025-04-13 13:55:17.692906] 100
[2025-04-13 13:55:17.692906] 81
[2025-04-13 13:55:17.701406] 64
[2025-04-13 13:55:17.701406] 36
[2025-04-13 13:55:17.701406] 1
[2025-04-13 13:55:17.701406] 9
[2025-04-13 13:55:17.701406] 64
[2025-04-13 13:55:17.701406] 121
[2025-04-13 13:55:17.701406] 144
[2025-04-13 13:55:17.701406] 100
[2025-04-13 13:55:17.709407] 25
[2025-04-13 13:55:17.709407] 0
[2025-04-13 13:55:17.710405] 36
[2025-04-13 13:55:17.710405] 100
[2025-04-13 13:55:17.710405] 169
[2025-04-13 13:55:17.710405] 196
[2025-04-13 13:55:17.710405] 169
[2025-04-13 13:55:17.719413] 121
[2025-04-13 13:55:17.719413] 64
[2025-04-13 13:55:17.719413] 36
[2025-04-13 13:55:17.719413] 9
[2025-04-13 13:55:17.719413] 0
[2025-04-13 13:55:17.719413] 16
[2025-04-13 13:55:17.719413] 49
[2025-04-13 13:55:17.719413] 64
[2025-04-13 13:55:17.728591] 81
[2025-04-13 13:55:17.728591] 81
[2025-04-13 13:55:17.729596] 49
[2025-04-13 13:55:17.729596] 9
[2025-04-13 13:55:17.729596] 1
[2025-04-13 13:55:17.729596] 25
[2025-04-13 13:55:17.730586] 49
[2025-04-13 13:55:17.730586] 81
[2025-04-13 13:55:17.730586] 169
[2025-04-13 13:55:17.738507] 256
[2025-04-13 13:55:17.738507] 256
[2025-04-13 13:55:17.738507] 169
[2025-04-13 13:55:17.738507] 49
[2025-04-13 13:55:17.738507] 0
[2025-04-13 13:55:17.738507] 36
[2025-04-13 13:55:17.738507] 100
[2025-04-13 13:55:17.745960] 144
[2025-04-13 13:55:17.746966] 144
[2025-04-13 13:55:17.746966] 64
[2025-04-13 13:55:17.746966] 16
[2025-04-13 13:55:17.746966] 1
[2025-04-13 13:55:17.746966] 25
[2025-04-13 13:55:17.746966] 49
[2025-04-13 13:55:17.746966] 64
[2025-04-13 13:55:17.756970] 64
[2025-04-13 13:55:17.756970] 81
[2025-04-13 13:55:17.756970] 81
[2025-04-13 13:55:17.756970] 36
[2025-04-13 13:55:17.756970] 25
[2025-04-13 13:55:17.756970] 16
[2025-04-13 13:55:17.756970] 4
[2025-04-13 13:55:17.756970] 1
[2025-04-13 13:55:17.766586] 25
[2025-04-13 13:55:17.766586] 49
[2025-04-13 13:55:17.766586] 81
[2025-04-13 13:55:17.766586] 64
[2025-04-13 13:55:17.766586] 25
[2025-04-13 13:55:17.766586] 1
[2025-04-13 13:55:17.766586] 1
[2025-04-13 13:55:17.766586] 25
[2025-04-13 13:55:17.766586] 81
[2025-04-13 13:55:17.775594] 144
[2025-04-13 13:55:17.775594] 169
[2025-04-13 13:55:17.775594] 144
[2025-04-13 13:55:17.775594] 100
[2025-04-13 13:55:17.775594] 49
[2025-04-13 13:55:17.775594] 25
[2025-04-13 13:55:17.775594] 1
[2025-04-13 13:55:17.783732] 9
[2025-04-13 13:55:17.783732] 49
[2025-04-13 13:55:17.784593] 100
[2025-04-13 13:55:17.784593] 121
[2025-04-13 13:55:17.784593] 100
[2025-04-13 13:55:17.784593] 25
[2025-04-13 13:55:17.784593] 0
[2025-04-13 13:55:17.784593] 25
[2025-04-13 13:55:17.792542] 64
[2025-04-13 13:55:17.792542] 100
[2025-04-13 13:55:17.792542] 100
[2025-04-13 13:55:17.792542] 64
[2025-04-13 13:55:17.792542] 64
[2025-04-13 13:55:17.792542] 100
[2025-04-13 13:55:17.792542] 100
[2025-04-13 13:55:17.801542] 49
[2025-04-13 13:55:17.801542] 1
[2025-04-13 13:55:17.801542] 36
[2025-04-13 13:55:17.802407] 144
[2025-04-13 13:55:17.802407] 225
[2025-04-13 13:55:17.802407] 169
[2025-04-13 13:55:17.802407] 64
[2025-04-13 13:55:17.811331] 0
[2025-04-13 13:55:17.811580] 25
[2025-04-13 13:55:17.811580] 64
[2025-04-13 13:55:17.811580] 64
[2025-04-13 13:55:17.811580] 81
[2025-04-13 13:55:17.811580] 100
[2025-04-13 13:55:17.811580] 81
[2025-04-13 13:55:17.811580] 64
[2025-04-13 13:55:17.820583] 49
[2025-04-13 13:55:17.820583] 36
[2025-04-13 13:55:17.820583] 16
[2025-04-13 13:55:17.820583] 4
[2025-04-13 13:55:17.820583] 1
[2025-04-13 13:55:17.821585] 25
[2025-04-13 13:55:17.821585] 100
[2025-04-13 13:55:17.821585] 144
[2025-04-13 13:55:17.829681] 100
[2025-04-13 13:55:17.829681] 25
[2025-04-13 13:55:17.829681] 0
[2025-04-13 13:55:17.829681] 9
[2025-04-13 13:55:17.829681] 36
[2025-04-13 13:55:17.829681] 81
[2025-04-13 13:55:17.829681] 144
[2025-04-13 13:55:17.830660] 144
[2025-04-13 13:55:17.838639] 100
[2025-04-13 13:55:17.839626] 64
[2025-04-13 13:55:17.839626] 36
[2025-04-13 13:55:17.839626] 16
[2025-04-13 13:55:17.839626] 1
[2025-04-13 13:55:17.839626] 4
[2025-04-13 13:55:17.839626] 36
[2025-04-13 13:55:17.839626] 100
[2025-04-13 13:55:17.847842] 121
[2025-04-13 13:55:17.847842] 100
[2025-04-13 13:55:17.847842] 25
[2025-04-13 13:55:17.847842] 0
[2025-04-13 13:55:17.847842] 25
[2025-04-13 13:55:17.847842] 81
[2025-04-13 13:55:17.847842] 121
[2025-04-13 13:55:17.857351] 144
[2025-04-13 13:55:17.857351] 144
[2025-04-13 13:55:17.857351] 100
[2025-04-13 13:55:17.857351] 64
[2025-04-13 13:55:17.857351] 25
[2025-04-13 13:55:17.857351] 4
[2025-04-13 13:55:17.857351] 1
[2025-04-13 13:55:17.857351] 16
[2025-04-13 13:55:17.866439] 36
[2025-04-13 13:55:17.866439] 81
[2025-04-13 13:55:17.866439] 100
[2025-04-13 13:55:17.866439] 64
[2025-04-13 13:55:17.866439] 25
[2025-04-13 13:55:17.866439] 0
[2025-04-13 13:55:17.866439] 9
[2025-04-13 13:55:17.866439] 49
[2025-04-13 13:55:17.874834] 81
[2025-04-13 13:55:17.874834] 121
[2025-04-13 13:55:17.874834] 100
[2025-04-13 13:55:17.874834] 49
[2025-04-13 13:55:17.874834] 64
[2025-04-13 13:55:17.874834] 121
[2025-04-13 13:55:17.874834] 169
[2025-04-13 13:55:17.883980] 36
[2025-04-13 13:55:17.883980] 9
[2025-04-13 13:55:17.883980] 100
[2025-04-13 13:55:17.883980] 169
[2025-04-13 13:55:17.883980] 169
[2025-04-13 13:55:17.883980] 100
[2025-04-13 13:55:17.883980] 36
[2025-04-13 13:55:17.884842] 1
[2025-04-13 13:55:17.892990] 4
[2025-04-13 13:55:17.892990] 36
[2025-04-13 13:55:17.892990] 81
[2025-04-13 13:55:17.892990] 121
[2025-04-13 13:55:17.892990] 144
[2025-04-13 13:55:17.892990] 100
[2025-04-13 13:55:17.892990] 81
[2025-04-13 13:55:17.902906] 36
[2025-04-13 13:55:17.902906] 4
[2025-04-13 13:55:17.902906] 1
[2025-04-13 13:55:17.902906] 36
[2025-04-13 13:55:17.902906] 81
[2025-04-13 13:55:17.902906] 100
[2025-04-13 13:55:17.903764] 81
[2025-04-13 13:55:17.903764] 25
[2025-04-13 13:55:17.903764] 1
[2025-04-13 13:55:17.910764] 9
[2025-04-13 13:55:17.911767] 49
[2025-04-13 13:55:17.911767] 100
[2025-04-13 13:55:17.911767] 121
[2025-04-13 13:55:17.911767] 121
[2025-04-13 13:55:17.911767] 121
[2025-04-13 13:55:17.911767] 100
[2025-04-13 13:55:17.920932] 81
[2025-04-13 13:55:17.920932] 49
[2025-04-13 13:55:17.920932] 9
[2025-04-13 13:55:17.920932] 1
[2025-04-13 13:55:17.921809] 25
[2025-04-13 13:55:17.921809] 81
[2025-04-13 13:55:17.921809] 144
[2025-04-13 13:55:17.921809] 144
[2025-04-13 13:55:17.929374] 100
[2025-04-13 13:55:17.929374] 25
[2025-04-13 13:55:17.929374] 1
[2025-04-13 13:55:17.929374] 25
[2025-04-13 13:55:17.929374] 81
[2025-04-13 13:55:17.929374] 144
[2025-04-13 13:55:17.929374] 169
[2025-04-13 13:55:17.938395] 144
[2025-04-13 13:55:17.938395] 121
[2025-04-13 13:55:17.938395] 81
[2025-04-13 13:55:17.938395] 64
[2025-04-13 13:55:17.938395] 9
[2025-04-13 13:55:17.938395] 4
[2025-04-13 13:55:17.938395] 16
[2025-04-13 13:55:17.938395] 16
[2025-04-13 13:55:17.948274] 36
[2025-04-13 13:55:17.948274] 81
[2025-04-13 13:55:17.948274] 81
[2025-04-13 13:55:17.948274] 49
[2025-04-13 13:55:17.948274] 4
[2025-04-13 13:55:17.948274] 9
[2025-04-13 13:55:17.948274] 49
[2025-04-13 13:55:17.948274] 81
[2025-04-13 13:55:17.948274] 121
[2025-04-13 13:55:17.957777] 100
[2025-04-13 13:55:17.957777] 81
[2025-04-13 13:55:17.957777] 64
[2025-04-13 13:55:17.957777] 36
[2025-04-13 13:55:17.957777] 16
[2025-04-13 13:55:17.957777] 0
[2025-04-13 13:55:17.957777] 25
[2025-04-13 13:55:17.957777] 81
[2025-04-13 13:55:17.966889] 144
[2025-04-13 13:55:17.966889] 121
[2025-04-13 13:55:17.966889] 64
[2025-04-13 13:55:17.966889] 4
[2025-04-13 13:55:17.966889] 16
[2025-04-13 13:55:17.966889] 64
[2025-04-13 13:55:17.966889] 121
[2025-04-13 13:55:17.976312] 144
[2025-04-13 13:55:17.976312] 169
[2025-04-13 13:55:17.976312] 144
[2025-04-13 13:55:17.976312] 64
[2025-04-13 13:55:17.976312] 36
[2025-04-13 13:55:17.976312] 9
[2025-04-13 13:55:17.976312] 0
[2025-04-13 13:55:17.976312] 1
[2025-04-13 13:55:17.985152] 9
[2025-04-13 13:55:17.985152] 49
[2025-04-13 13:55:17.985152] 100
[2025-04-13 13:55:17.985152] 100
[2025-04-13 13:55:17.985152] 64
[2025-04-13 13:55:17.986040] 16
[2025-04-13 13:55:17.986040] 0
[2025-04-13 13:55:17.986040] 25
[2025-04-13 13:55:17.993155] 64
[2025-04-13 13:55:17.994009] 100
[2025-04-13 13:55:17.994009] 121
[2025-04-13 13:55:17.994009] 121
[2025-04-13 13:55:17.994009] 100
[2025-04-13 13:55:17.994009] 64
[2025-04-13 13:55:17.994009] 36
[2025-04-13 13:55:18.003948] 4
[2025-04-13 13:55:18.003948] 1
[2025-04-13 13:55:18.003948] 16
[2025-04-13 13:55:18.004971] 49
[2025-04-13 13:55:18.004971] 81
[2025-04-13 13:55:18.004971] 64
[2025-04-13 13:55:18.004971] 25
[2025-04-13 13:55:18.006000] 4
[2025-04-13 13:55:18.006000] 0
[2025-04-13 13:55:18.011976] 9
[2025-04-13 13:55:18.012947] 36
[2025-04-13 13:55:18.012947] 64
[2025-04-13 13:55:18.012947] 100
[2025-04-13 13:55:18.012947] 144
[2025-04-13 13:55:18.012947] 144
[2025-04-13 13:55:18.013945] 100
[2025-04-13 13:55:18.021967] 64
[2025-04-13 13:55:18.021967] 36
[2025-04-13 13:55:18.021967] 9
[2025-04-13 13:55:18.021967] 4
[2025-04-13 13:55:18.021967] 81
[2025-04-13 13:55:18.021967] 196
[2025-04-13 13:55:18.021967] 225
[2025-04-13 13:55:18.021967] 121
[2025-04-13 13:55:18.029830] 25
[2025-04-13 13:55:18.030775] 1
[2025-04-13 13:55:18.030775] 25
[2025-04-13 13:55:18.030775] 64
[2025-04-13 13:55:18.030775] 121
[2025-04-13 13:55:18.030775] 169
[2025-04-13 13:55:18.030775] 169
[2025-04-13 13:55:18.039919] 121
[2025-04-13 13:55:18.039919] 64
[2025-04-13 13:55:18.039919] 36
[2025-04-13 13:55:18.039919] 4
[2025-04-13 13:55:18.039919] 1
[2025-04-13 13:55:18.039919] 49
[2025-04-13 13:55:18.039919] 100
[2025-04-13 13:55:18.039919] 169
[2025-04-13 13:55:18.049160] 144
[2025-04-13 13:55:18.049160] 64
[2025-04-13 13:55:18.049160] 9
[2025-04-13 13:55:18.049160] 4
[2025-04-13 13:55:18.049160] 64
[2025-04-13 13:55:18.049160] 144
[2025-04-13 13:55:18.050019] 196
[2025-04-13 13:55:18.050019] 196
[2025-04-13 13:55:18.058794] 144
[2025-04-13 13:55:18.058794] 81
[2025-04-13 13:55:18.058794] 36
[2025-04-13 13:55:18.058794] 4
[2025-04-13 13:55:18.058794] 1
[2025-04-13 13:55:18.058794] 1
[2025-04-13 13:55:18.058794] 9
[2025-04-13 13:55:18.058794] 36
[2025-04-13 13:55:18.067934] 121
[2025-04-13 13:55:18.067934] 169
[2025-04-13 13:55:18.067934] 81
[2025-04-13 13:55:18.067934] 9
[2025-04-13 13:55:18.067934] 16
[2025-04-13 13:55:18.067934] 64
[2025-04-13 13:55:18.067934] 100
[2025-04-13 13:55:18.067934] 100
[2025-04-13 13:55:18.076355] 121
[2025-04-13 13:55:18.076355] 144
[2025-04-13 13:55:18.076355] 100
[2025-04-13 13:55:18.076355] 64
[2025-04-13 13:55:18.076355] 25
[2025-04-13 13:55:18.077248] 1
[2025-04-13 13:55:18.077248] 9
[2025-04-13 13:55:18.077248] 49
[2025-04-13 13:55:18.086779] 100
[2025-04-13 13:55:18.086779] 144
[2025-04-13 13:55:18.086779] 81
[2025-04-13 13:55:18.086779] 16
[2025-04-13 13:55:18.086779] 0
[2025-04-13 13:55:18.086779] 4
[2025-04-13 13:55:18.086779] 4
[2025-04-13 13:55:18.086779] 9
[2025-04-13 13:55:18.094665] 25
[2025-04-13 13:55:18.094665] 81
[2025-04-13 13:55:18.094665] 121
[2025-04-13 13:55:18.094665] 121
[2025-04-13 13:55:18.094665] 121
[2025-04-13 13:55:18.094665] 121
[2025-04-13 13:55:18.094665] 49
[2025-04-13 13:55:18.103710] 9
[2025-04-13 13:55:18.104697] 4
[2025-04-13 13:55:18.104697] 49
[2025-04-13 13:55:18.104697] 121
[2025-04-13 13:55:18.105663] 121
[2025-04-13 13:55:18.105663] 81
[2025-04-13 13:55:18.105663] 16
[2025-04-13 13:55:18.105663] 0
[2025-04-13 13:55:18.113082] 16
[2025-04-13 13:55:18.113082] 64
[2025-04-13 13:55:18.113082] 100
[2025-04-13 13:55:18.113082] 121
[2025-04-13 13:55:18.113082] 121
[2025-04-13 13:55:18.113082] 81
[2025-04-13 13:55:18.113082] 49
[2025-04-13 13:55:18.113082] 16
[2025-04-13 13:55:18.123232] 1
[2025-04-13 13:55:18.123232] 4
[2025-04-13 13:55:18.123232] 36
[2025-04-13 13:55:18.123232] 81
[2025-04-13 13:55:18.123232] 121
[2025-04-13 13:55:18.123232] 81
[2025-04-13 13:55:18.123232] 49
[2025-04-13 13:55:18.123232] 9
[2025-04-13 13:55:18.131382] 1
[2025-04-13 13:55:18.131382] 49
[2025-04-13 13:55:18.131382] 121
[2025-04-13 13:55:18.131382] 169
[2025-04-13 13:55:18.131382] 196
[2025-04-13 13:55:18.131382] 196
[2025-04-13 13:55:18.131382] 169
[2025-04-13 13:55:18.139679] 100
[2025-04-13 13:55:18.139679] 36
[2025-04-13 13:55:18.140538] 1
[2025-04-13 13:55:18.140538] 16
[2025-04-13 13:55:18.140538] 64
[2025-04-13 13:55:18.140538] 121
[2025-04-13 13:55:18.140538] 169
[2025-04-13 13:55:18.149656] 121
[2025-04-13 13:55:18.149656] 64
[2025-04-13 13:55:18.149656] 4
[2025-04-13 13:55:18.149656] 4
[2025-04-13 13:55:18.149656] 36
[2025-04-13 13:55:18.149656] 81
[2025-04-13 13:55:18.149656] 121
[2025-04-13 13:55:18.149656] 144
[2025-04-13 13:55:18.158814] 144
[2025-04-13 13:55:18.159816] 81
[2025-04-13 13:55:18.159816] 64
[2025-04-13 13:55:18.159816] 81
[2025-04-13 13:55:18.159816] 25
[2025-04-13 13:55:18.159816] 0
[2025-04-13 13:55:18.159816] 64
[2025-04-13 13:55:18.159816] 144
[2025-04-13 13:55:18.167937] 144
[2025-04-13 13:55:18.167937] 100
[2025-04-13 13:55:18.167937] 36
[2025-04-13 13:55:18.167937] 1
[2025-04-13 13:55:18.167937] 4
[2025-04-13 13:55:18.168796] 49
[2025-04-13 13:55:18.168796] 81
[2025-04-13 13:55:18.168796] 144
[2025-04-13 13:55:18.177630] 144
[2025-04-13 13:55:18.177630] 121
[2025-04-13 13:55:18.177630] 64
[2025-04-13 13:55:18.177630] 16
[2025-04-13 13:55:18.177630] 1
[2025-04-13 13:55:18.178393] 0
[2025-04-13 13:55:18.178393] 0
[2025-04-13 13:55:18.178393] 4
[2025-04-13 13:55:18.187986] 25
[2025-04-13 13:55:18.187986] 64
[2025-04-13 13:55:18.187986] 81
[2025-04-13 13:55:18.187986] 36
[2025-04-13 13:55:18.187986] 4
[2025-04-13 13:55:18.187986] 1
[2025-04-13 13:55:18.187986] 25
[2025-04-13 13:55:18.187986] 36
[2025-04-13 13:55:18.189015] 64
[2025-04-13 13:55:18.196006] 100
[2025-04-13 13:55:18.196006] 144
[2025-04-13 13:55:18.196006] 121
[2025-04-13 13:55:18.196006] 121
[2025-04-13 13:55:18.196006] 81
[2025-04-13 13:55:18.196006] 16
[2025-04-13 13:55:18.196006] 4
[2025-04-13 13:55:18.205518] 64
[2025-04-13 13:55:18.205518] 169
[2025-04-13 13:55:18.205518] 196
[2025-04-13 13:55:18.206503] 144
[2025-04-13 13:55:18.206503] 49
[2025-04-13 13:55:18.206503] 1
[2025-04-13 13:55:18.206503] 1
[2025-04-13 13:55:18.206503] 36
[2025-04-13 13:55:18.212640] 64
[2025-04-13 13:55:18.212640] 121
[2025-04-13 13:55:18.213550] 169
[2025-04-13 13:55:18.213550] 225
[2025-04-13 13:55:18.213550] 225
[2025-04-13 13:55:18.213550] 144
[2025-04-13 13:55:18.213550] 49
[2025-04-13 13:55:18.222510] 0
[2025-04-13 13:55:18.222510] 25
[2025-04-13 13:55:18.222510] 100
[2025-04-13 13:55:18.222510] 144
[2025-04-13 13:55:18.222510] 169
[2025-04-13 13:55:18.222510] 100
[2025-04-13 13:55:18.222510] 36
[2025-04-13 13:55:18.231021] 1
[2025-04-13 13:55:18.231021] 25
[2025-04-13 13:55:18.231021] 81
[2025-04-13 13:55:18.231021] 144
[2025-04-13 13:55:18.231021] 169
[2025-04-13 13:55:18.231021] 121
[2025-04-13 13:55:18.231021] 81
[2025-04-13 13:55:18.241133] 36
[2025-04-13 13:55:18.241133] 25
[2025-04-13 13:55:18.241133] 9
[2025-04-13 13:55:18.241133] 0
[2025-04-13 13:55:18.241133] 36
[2025-04-13 13:55:18.241133] 64
[2025-04-13 13:55:18.241133] 64
[2025-04-13 13:55:18.241133] 36
[2025-04-13 13:55:18.241133] 9
[2025-04-13 13:55:18.250696] 1
[2025-04-13 13:55:18.250696] 0
[2025-04-13 13:55:18.250696] 1
[2025-04-13 13:55:18.250696] 16
[2025-04-13 13:55:18.253550] 49
[2025-04-13 13:55:18.253550] 81
[2025-04-13 13:55:18.253550] 100
[2025-04-13 13:55:18.254202] 81
[2025-04-13 13:55:18.254202] 81
[2025-04-13 13:55:18.260058] 81
[2025-04-13 13:55:18.260058] 81
[2025-04-13 13:55:18.260058] 16
[2025-04-13 13:55:18.260058] 9
[2025-04-13 13:55:18.260058] 100
[2025-04-13 13:55:18.260058] 196
[2025-04-13 13:55:18.260058] 169
[2025-04-13 13:55:18.269502] 64
[2025-04-13 13:55:18.269502] 4
[2025-04-13 13:55:18.269502] 9
[2025-04-13 13:55:18.269502] 49
[2025-04-13 13:55:18.269502] 49
[2025-04-13 13:55:18.269502] 36
[2025-04-13 13:55:18.269502] 64
[2025-04-13 13:55:18.269502] 81
[2025-04-13 13:55:18.278499] 100
[2025-04-13 13:55:18.278499] 100
[2025-04-13 13:55:18.278499] 81
[2025-04-13 13:55:18.278499] 64
[2025-04-13 13:55:18.278499] 9
[2025-04-13 13:55:18.278499] 9
[2025-04-13 13:55:18.279381] 81
[2025-04-13 13:55:18.279381] 144
[2025-04-13 13:55:18.286918] 169
[2025-04-13 13:55:18.286918] 100
[2025-04-13 13:55:18.286918] 36
[2025-04-13 13:55:18.286918] 0
[2025-04-13 13:55:18.286918] 25
[2025-04-13 13:55:18.287970] 64
[2025-04-13 13:55:18.287970] 100
[2025-04-13 13:55:18.287970] 121
[2025-04-13 13:55:18.296649] 121
[2025-04-13 13:55:18.296649] 100
[2025-04-13 13:55:18.296649] 49
[2025-04-13 13:55:18.296649] 36
[2025-04-13 13:55:18.296649] 16
[2025-04-13 13:55:18.296649] 1
[2025-04-13 13:55:18.296649] 4
[2025-04-13 13:55:18.296649] 25
[2025-04-13 13:55:18.306995] 49
[2025-04-13 13:55:18.306995] 81
[2025-04-13 13:55:18.306995] 64
[2025-04-13 13:55:18.306995] 25
[2025-04-13 13:55:18.306995] 4
[2025-04-13 13:55:18.307891] 1
[2025-04-13 13:55:18.307891] 25
[2025-04-13 13:55:18.307891] 81
[2025-04-13 13:55:18.314858] 100
[2025-04-13 13:55:18.314858] 144
[2025-04-13 13:55:18.314858] 121
[2025-04-13 13:55:18.314858] 81
[2025-04-13 13:55:18.314858] 49
[2025-04-13 13:55:18.315896] 16
[2025-04-13 13:55:18.315896] 0
[2025-04-13 13:55:18.315896] 16
[2025-04-13 13:55:18.325747] 49
[2025-04-13 13:55:18.325747] 81
[2025-04-13 13:55:18.325747] 64
[2025-04-13 13:55:18.325747] 36
[2025-04-13 13:55:18.325747] 25
[2025-04-13 13:55:18.325747] 9
[2025-04-13 13:55:18.325747] 0
[2025-04-13 13:55:18.325747] 36
[2025-04-13 13:55:18.334125] 144
[2025-04-13 13:55:18.334125] 225
[2025-04-13 13:55:18.334125] 225
[2025-04-13 13:55:18.334125] 169
[2025-04-13 13:55:18.334125] 81
[2025-04-13 13:55:18.334125] 25
[2025-04-13 13:55:18.334125] 9
[2025-04-13 13:55:18.334125] 0
[2025-04-13 13:55:18.343405] 16
[2025-04-13 13:55:18.343405] 81
[2025-04-13 13:55:18.343405] 144
[2025-04-13 13:55:18.343405] 144
[2025-04-13 13:55:18.343405] 121
[2025-04-13 13:55:18.343405] 25
[2025-04-13 13:55:18.343405] 1
[2025-04-13 13:55:18.351656] 64
[2025-04-13 13:55:18.351656] 144
[2025-04-13 13:55:18.351656] 100
[2025-04-13 13:55:18.351656] 100
[2025-04-13 13:55:18.351656] 81
[2025-04-13 13:55:18.351656] 121
[2025-04-13 13:55:18.351656] 81
[2025-04-13 13:55:18.360637] 36
[2025-04-13 13:55:18.361497] 4
[2025-04-13 13:55:18.361497] 0
[2025-04-13 13:55:18.361497] 16
[2025-04-13 13:55:18.361497] 64
[2025-04-13 13:55:18.361497] 121
[2025-04-13 13:55:18.361497] 144
[2025-04-13 13:55:18.361497] 100
[2025-04-13 13:55:18.369738] 16
[2025-04-13 13:55:18.369738] 1
[2025-04-13 13:55:18.369738] 25
[2025-04-13 13:55:18.370616] 49
[2025-04-13 13:55:18.370616] 64
[2025-04-13 13:55:18.370616] 81
[2025-04-13 13:55:18.370616] 144
[2025-04-13 13:55:18.370616] 144
[2025-04-13 13:55:18.378543] 144
[2025-04-13 13:55:18.379491] 100
[2025-04-13 13:55:18.379491] 36
[2025-04-13 13:55:18.379491] 0
[2025-04-13 13:55:18.379491] 36
[2025-04-13 13:55:18.379491] 121
[2025-04-13 13:55:18.379491] 169
[2025-04-13 13:55:18.388489] 144
[2025-04-13 13:55:18.388489] 49
[2025-04-13 13:55:18.388489] 9
[2025-04-13 13:55:18.388489] 4
[2025-04-13 13:55:18.388489] 36
[2025-04-13 13:55:18.388489] 64
[2025-04-13 13:55:18.388489] 81
[2025-04-13 13:55:18.388489] 81
[2025-04-13 13:55:18.397587] 81
[2025-04-13 13:55:18.397587] 81
[2025-04-13 13:55:18.397587] 81
[2025-04-13 13:55:18.397587] 81
[2025-04-13 13:55:18.397587] 49
[2025-04-13 13:55:18.398537] 4
[2025-04-13 13:55:18.398537] 9
[2025-04-13 13:55:18.398537] 81
[2025-04-13 13:55:18.407184] 169
[2025-04-13 13:55:18.407184] 169
[2025-04-13 13:55:18.407184] 100
[2025-04-13 13:55:18.407184] 16
[2025-04-13 13:55:18.407184] 0
[2025-04-13 13:55:18.408153] 36
[2025-04-13 13:55:18.408153] 64
[2025-04-13 13:55:18.408153] 100
[2025-04-13 13:55:18.415267] 121
[2025-04-13 13:55:18.415267] 100
[2025-04-13 13:55:18.415267] 64
[2025-04-13 13:55:18.415267] 49
[2025-04-13 13:55:18.415267] 81
[2025-04-13 13:55:18.415267] 81
[2025-04-13 13:55:18.415267] 25
[2025-04-13 13:55:18.415267] 4
[2025-04-13 13:55:18.424607] 81
[2025-04-13 13:55:18.424607] 169
[2025-04-13 13:55:18.424607] 169
[2025-04-13 13:55:18.424607] 81
[2025-04-13 13:55:18.424607] 16
[2025-04-13 13:55:18.424607] 0
[2025-04-13 13:55:18.424607] 16
[2025-04-13 13:55:18.434270] 49
[2025-04-13 13:55:18.434270] 81
[2025-04-13 13:55:18.434270] 121
[2025-04-13 13:55:18.434270] 144
[2025-04-13 13:55:18.434270] 121
[2025-04-13 13:55:18.434270] 64
[2025-04-13 13:55:18.434270] 25
[2025-04-13 13:55:18.434270] 1
[2025-04-13 13:55:18.443417] 1
[2025-04-13 13:55:18.443417] 9
[2025-04-13 13:55:18.443417] 36
[2025-04-13 13:55:18.443417] 64
[2025-04-13 13:55:18.443417] 81
[2025-04-13 13:55:18.443417] 81
[2025-04-13 13:55:18.443417] 36
[2025-04-13 13:55:18.443417] 1
[2025-04-13 13:55:18.444309] 36
[2025-04-13 13:55:18.452175] 81
[2025-04-13 13:55:18.452175] 81
[2025-04-13 13:55:18.452455] 100
[2025-04-13 13:55:18.452455] 100
[2025-04-13 13:55:18.452455] 144
[2025-04-13 13:55:18.452455] 121
[2025-04-13 13:55:18.461069] 100
[2025-04-13 13:55:18.461069] 16
[2025-04-13 13:55:18.461069] 4
[2025-04-13 13:55:18.461069] 49
[2025-04-13 13:55:18.461069] 121
[2025-04-13 13:55:18.461069] 121
[2025-04-13 13:55:18.461069] 100
[2025-04-13 13:55:18.461069] 36
[2025-04-13 13:55:18.470025] 1
[2025-04-13 13:55:18.471017] 1
[2025-04-13 13:55:18.471017] 16
[2025-04-13 13:55:18.471017] 25
[2025-04-13 13:55:18.471017] 49
[2025-04-13 13:55:18.472018] 81
[2025-04-13 13:55:18.472018] 121
[2025-04-13 13:55:18.472018] 144
[2025-04-13 13:55:18.479015] 144
[2025-04-13 13:55:18.479015] 121
[2025-04-13 13:55:18.479015] 64
[2025-04-13 13:55:18.479015] 4
[2025-04-13 13:55:18.480014] 9
[2025-04-13 13:55:18.480014] 81
[2025-04-13 13:55:18.480014] 121
[2025-04-13 13:55:18.488343] 144
[2025-04-13 13:55:18.488343] 81
[2025-04-13 13:55:18.488343] 16
[2025-04-13 13:55:18.488343] 0
[2025-04-13 13:55:18.488343] 4
[2025-04-13 13:55:18.488343] 25
[2025-04-13 13:55:18.488343] 64
[2025-04-13 13:55:18.488343] 100
[2025-04-13 13:55:18.496337] 144
[2025-04-13 13:55:18.496337] 169
[2025-04-13 13:55:18.496337] 196
[2025-04-13 13:55:18.496337] 100
[2025-04-13 13:55:18.497337] 16
[2025-04-13 13:55:18.497337] 9
[2025-04-13 13:55:18.497337] 100
[2025-04-13 13:55:18.507232] 196
[2025-04-13 13:55:18.507232] 144
[2025-04-13 13:55:18.507232] 49
[2025-04-13 13:55:18.507232] 1
[2025-04-13 13:55:18.507232] 1
[2025-04-13 13:55:18.507232] 9
[2025-04-13 13:55:18.507232] 16
[2025-04-13 13:55:18.507232] 25
[2025-04-13 13:55:18.507232] 64
[2025-04-13 13:55:18.515653] 100
[2025-04-13 13:55:18.515653] 121
[2025-04-13 13:55:18.515653] 121
[2025-04-13 13:55:18.515653] 81
[2025-04-13 13:55:18.515653] 64
[2025-04-13 13:55:18.515653] 9
[2025-04-13 13:55:18.515653] 0
[2025-04-13 13:55:18.515653] 25
[2025-04-13 13:55:18.525048] 64
[2025-04-13 13:55:18.525048] 121
[2025-04-13 13:55:18.525048] 100
[2025-04-13 13:55:18.525048] 49
[2025-04-13 13:55:18.525048] 9
[2025-04-13 13:55:18.525048] 0
[2025-04-13 13:55:18.525907] 25
[2025-04-13 13:55:18.525907] 64
[2025-04-13 13:55:18.535009] 100
[2025-04-13 13:55:18.535009] 121
[2025-04-13 13:55:18.535009] 121
[2025-04-13 13:55:18.535009] 81
[2025-04-13 13:55:18.535009] 64
[2025-04-13 13:55:18.535009] 25
[2025-04-13 13:55:18.535009] 9
[2025-04-13 13:55:18.543965] 1
[2025-04-13 13:55:18.543965] 25
[2025-04-13 13:55:18.543965] 64
[2025-04-13 13:55:18.543965] 81
[2025-04-13 13:55:18.543965] 81
[2025-04-13 13:55:18.543965] 64
[2025-04-13 13:55:18.543965] 25
[2025-04-13 13:55:18.544920] 0
[2025-04-13 13:55:18.544920] 36
[2025-04-13 13:55:18.551901] 100
[2025-04-13 13:55:18.551901] 121
[2025-04-13 13:55:18.551901] 100
[2025-04-13 13:55:18.551901] 81
[2025-04-13 13:55:18.551901] 100
[2025-04-13 13:55:18.551901] 121
[2025-04-13 13:55:18.561120] 81
[2025-04-13 13:55:18.561120] 16
[2025-04-13 13:55:18.561120] 1
[2025-04-13 13:55:18.561120] 36
[2025-04-13 13:55:18.562008] 100
[2025-04-13 13:55:18.562008] 144
[2025-04-13 13:55:18.562008] 144
[2025-04-13 13:55:18.562008] 81
[2025-04-13 13:55:18.569989] 16
[2025-04-13 13:55:18.569989] 1
[2025-04-13 13:55:18.569989] 49
[2025-04-13 13:55:18.569989] 121
[2025-04-13 13:55:18.569989] 169
[2025-04-13 13:55:18.569989] 169
[2025-04-13 13:55:18.569989] 121
[2025-04-13 13:55:18.579153] 81
[2025-04-13 13:55:18.579153] 49
[2025-04-13 13:55:18.579153] 16
[2025-04-13 13:55:18.579153] 0
[2025-04-13 13:55:18.579153] 16
[2025-04-13 13:55:18.579153] 25
[2025-04-13 13:55:18.579153] 25
[2025-04-13 13:55:18.579153] 16
[2025-04-13 13:55:18.588160] 25
[2025-04-13 13:55:18.588160] 36
[2025-04-13 13:55:18.588160] 25
[2025-04-13 13:55:18.588160] 0
[2025-04-13 13:55:18.589157] 16
[2025-04-13 13:55:18.589157] 81
[2025-04-13 13:55:18.589157] 100
[2025-04-13 13:55:18.589157] 144
[2025-04-13 13:55:18.598209] 144
[2025-04-13 13:55:18.598209] 100
[2025-04-13 13:55:18.598209] 49
[2025-04-13 13:55:18.598209] 25
[2025-04-13 13:55:18.598209] 1
[2025-04-13 13:55:18.598209] 4
[2025-04-13 13:55:18.598209] 25
[2025-04-13 13:55:18.598209] 64
[2025-04-13 13:55:18.607214] 81
[2025-04-13 13:55:18.607214] 81
[2025-04-13 13:55:18.607214] 64
[2025-04-13 13:55:18.607214] 16
[2025-04-13 13:55:18.607214] 0
[2025-04-13 13:55:18.607214] 16
[2025-04-13 13:55:18.607214] 49
[2025-04-13 13:55:18.607214] 100
[2025-04-13 13:55:18.616675] 144
[2025-04-13 13:55:18.616675] 144
[2025-04-13 13:55:18.616675] 121
[2025-04-13 13:55:18.616675] 64
[2025-04-13 13:55:18.616675] 36
[2025-04-13 13:55:18.616675] 4
[2025-04-13 13:55:18.616675] 1
[2025-04-13 13:55:18.616675] 25
[2025-04-13 13:55:18.625674] 64
[2025-04-13 13:55:18.628531] 100
[2025-04-13 13:55:18.628531] 81
[2025-04-13 13:55:18.628531] 25
[2025-04-13 13:55:18.628531] 1
[2025-04-13 13:55:18.628531] 9
[2025-04-13 13:55:18.628531] 49
[2025-04-13 13:55:18.628531] 64
[2025-04-13 13:55:18.635629] 81
[2025-04-13 13:55:18.635629] 64
[2025-04-13 13:55:18.635629] 64
[2025-04-13 13:55:18.635629] 64
[2025-04-13 13:55:18.635993] 121
[2025-04-13 13:55:18.635993] 121
[2025-04-13 13:55:18.635993] 49
[2025-04-13 13:55:18.635993] 0
[2025-04-13 13:55:18.643312] 49
[2025-04-13 13:55:18.643312] 144
[2025-04-13 13:55:18.644311] 169
[2025-04-13 13:55:18.644311] 144
[2025-04-13 13:55:18.644311] 64
[2025-04-13 13:55:18.644311] 16
[2025-04-13 13:55:18.644311] 1
[2025-04-13 13:55:18.652318] 36
[2025-04-13 13:55:18.652318] 64
[2025-04-13 13:55:18.652318] 100
[2025-04-13 13:55:18.652318] 121
[2025-04-13 13:55:18.652318] 121
[2025-04-13 13:55:18.652318] 121
[2025-04-13 13:55:18.652318] 100
[2025-04-13 13:55:18.661315] 64
[2025-04-13 13:55:18.661315] 4
[2025-04-13 13:55:18.661315] 4
[2025-04-13 13:55:18.662312] 49
[2025-04-13 13:55:18.662312] 100
[2025-04-13 13:55:18.662312] 121
[2025-04-13 13:55:18.662312] 64
[2025-04-13 13:55:18.662312] 25
[2025-04-13 13:55:18.670455] 4
[2025-04-13 13:55:18.671477] 1
[2025-04-13 13:55:18.671477] 16
[2025-04-13 13:55:18.671477] 49
[2025-04-13 13:55:18.671477] 81
[2025-04-13 13:55:18.671477] 121
[2025-04-13 13:55:18.671477] 100
[2025-04-13 13:55:18.671477] 100
[2025-04-13 13:55:18.679455] 121
[2025-04-13 13:55:18.679455] 144
[2025-04-13 13:55:18.679455] 49
[2025-04-13 13:55:18.679455] 0
[2025-04-13 13:55:18.679455] 64
[2025-04-13 13:55:18.679455] 144
[2025-04-13 13:55:18.679455] 144
[2025-04-13 13:55:18.688907] 121
[2025-04-13 13:55:18.688907] 64
[2025-04-13 13:55:18.688907] 9
[2025-04-13 13:55:18.688907] 1
[2025-04-13 13:55:18.688907] 25
[2025-04-13 13:55:18.688907] 81
[2025-04-13 13:55:18.688907] 100
[2025-04-13 13:55:18.688907] 144
[2025-04-13 13:55:18.697461] 144
[2025-04-13 13:55:18.697461] 100
[2025-04-13 13:55:18.697461] 64
[2025-04-13 13:55:18.697461] 25
[2025-04-13 13:55:18.697461] 1
[2025-04-13 13:55:18.697461] 9
[2025-04-13 13:55:18.697461] 49
[2025-04-13 13:55:18.697461] 100
[2025-04-13 13:55:18.706476] 121
[2025-04-13 13:55:18.706476] 100
[2025-04-13 13:55:18.706476] 25
[2025-04-13 13:55:18.706476] 1
[2025-04-13 13:55:18.707466] 9
[2025-04-13 13:55:18.707466] 36
[2025-04-13 13:55:18.707466] 64
[2025-04-13 13:55:18.716014] 121
[2025-04-13 13:55:18.716014] 169
[2025-04-13 13:55:18.716014] 169
[2025-04-13 13:55:18.716014] 121
[2025-04-13 13:55:18.716477] 81
[2025-04-13 13:55:18.716477] 25
[2025-04-13 13:55:18.716477] 0
[2025-04-13 13:55:18.716477] 25
[2025-04-13 13:55:18.724679] 49
[2025-04-13 13:55:18.724679] 144
[2025-04-13 13:55:18.724679] 169
[2025-04-13 13:55:18.724679] 144
[2025-04-13 13:55:18.724679] 36
[2025-04-13 13:55:18.724679] 9
[2025-04-13 13:55:18.724679] 100
[2025-04-13 13:55:18.732686] 144
[2025-04-13 13:55:18.732686] 121
[2025-04-13 13:55:18.732686] 100
[2025-04-13 13:55:18.732686] 100
[2025-04-13 13:55:18.732686] 100
[2025-04-13 13:55:18.732686] 64
[2025-04-13 13:55:18.732686] 36
[2025-04-13 13:55:18.742334] 9
[2025-04-13 13:55:18.742334] 0
[2025-04-13 13:55:18.742334] 16
[2025-04-13 13:55:18.742334] 49
[2025-04-13 13:55:18.742334] 100
[2025-04-13 13:55:18.742334] 81
[2025-04-13 13:55:18.742334] 49
[2025-04-13 13:55:18.742334] 9
[2025-04-13 13:55:18.742334] 0
[2025-04-13 13:55:18.751491] 16
[2025-04-13 13:55:18.751491] 25
[2025-04-13 13:55:18.751491] 64
[2025-04-13 13:55:18.751491] 100
[2025-04-13 13:55:18.751491] 100
[2025-04-13 13:55:18.751491] 100
[2025-04-13 13:55:18.751491] 64
[2025-04-13 13:55:18.761345] 36
[2025-04-13 13:55:18.761345] 1
[2025-04-13 13:55:18.762343] 16
[2025-04-13 13:55:18.762343] 36
[2025-04-13 13:55:18.762343] 16
[2025-04-13 13:55:18.762343] 4
[2025-04-13 13:55:18.762343] 4
[2025-04-13 13:55:18.762343] 16
[2025-04-13 13:55:18.763342] 9
[2025-04-13 13:55:18.771240] 0
[2025-04-13 13:55:18.771240] 9
[2025-04-13 13:55:18.771240] 49
[2025-04-13 13:55:18.771240] 64
[2025-04-13 13:55:18.771240] 100
[2025-04-13 13:55:18.771240] 81
[2025-04-13 13:55:18.771240] 81
[2025-04-13 13:55:18.772176] 36
[2025-04-13 13:55:18.780181] 16
[2025-04-13 13:55:18.780181] 9
[2025-04-13 13:55:18.780181] 0
[2025-04-13 13:55:18.780181] 16
[2025-04-13 13:55:18.781173] 49
[2025-04-13 13:55:18.781173] 100
[2025-04-13 13:55:18.781173] 121
[2025-04-13 13:55:18.781173] 64
[2025-04-13 13:55:18.789322] 16
[2025-04-13 13:55:18.789322] 0
[2025-04-13 13:55:18.789322] 16
[2025-04-13 13:55:18.789322] 49
[2025-04-13 13:55:18.789322] 81
[2025-04-13 13:55:18.789322] 100
[2025-04-13 13:55:18.789322] 121
[2025-04-13 13:55:18.789322] 100
[2025-04-13 13:55:18.798480] 64
[2025-04-13 13:55:18.798480] 49
[2025-04-13 13:55:18.798480] 25
[2025-04-13 13:55:18.798480] 1
[2025-04-13 13:55:18.798480] 9
[2025-04-13 13:55:18.798480] 64
[2025-04-13 13:55:18.798480] 100
[2025-04-13 13:55:18.799361] 100
[2025-04-13 13:55:18.807633] 64
[2025-04-13 13:55:18.807633] 16
[2025-04-13 13:55:18.807633] 0
[2025-04-13 13:55:18.807633] 25
[2025-04-13 13:55:18.807633] 36
[2025-04-13 13:55:18.807633] 100
[2025-04-13 13:55:18.807633] 196
[2025-04-13 13:55:18.816792] 196
[2025-04-13 13:55:18.816792] 100
[2025-04-13 13:55:18.816792] 36
[2025-04-13 13:55:18.816792] 36
[2025-04-13 13:55:18.817831] 25
[2025-04-13 13:55:18.817831] 1
[2025-04-13 13:55:18.817831] 25
[2025-04-13 13:55:18.817831] 81
[2025-04-13 13:55:18.825937] 121
[2025-04-13 13:55:18.825937] 121
[2025-04-13 13:55:18.825937] 64
[2025-04-13 13:55:18.825937] 16
[2025-04-13 13:55:18.825937] 0
[2025-04-13 13:55:18.825937] 16
[2025-04-13 13:55:18.825937] 49
[2025-04-13 13:55:18.825937] 100
[2025-04-13 13:55:18.835056] 121
[2025-04-13 13:55:18.835056] 144
[2025-04-13 13:55:18.835056] 144
[2025-04-13 13:55:18.835056] 100
[2025-04-13 13:55:18.835056] 49
[2025-04-13 13:55:18.835056] 16
[2025-04-13 13:55:18.835056] 0
[2025-04-13 13:55:18.842872] 9
[2025-04-13 13:55:18.843730] 49
[2025-04-13 13:55:18.843730] 100
[2025-04-13 13:55:18.843730] 121
[2025-04-13 13:55:18.843730] 100
[2025-04-13 13:55:18.843730] 36
[2025-04-13 13:55:18.843730] 4
[2025-04-13 13:55:18.843730] 16
[2025-04-13 13:55:18.851730] 81
[2025-04-13 13:55:18.851730] 121
[2025-04-13 13:55:18.851730] 169
[2025-04-13 13:55:18.852730] 144
[2025-04-13 13:55:18.852730] 121
[2025-04-13 13:55:18.852730] 64
[2025-04-13 13:55:18.852730] 49
[2025-04-13 13:55:18.860892] 16
[2025-04-13 13:55:18.860892] 0
[2025-04-13 13:55:18.860892] 25
[2025-04-13 13:55:18.860892] 64
[2025-04-13 13:55:18.861992] 100
[2025-04-13 13:55:18.861992] 121
[2025-04-13 13:55:18.861992] 64
[2025-04-13 13:55:18.868953] 16
[2025-04-13 13:55:18.870004] 0
[2025-04-13 13:55:18.870004] 25
[2025-04-13 13:55:18.870004] 64
[2025-04-13 13:55:18.870004] 100
[2025-04-13 13:55:18.870004] 144
[2025-04-13 13:55:18.870004] 144
[2025-04-13 13:55:18.870004] 121
[2025-04-13 13:55:18.879040] 100
[2025-04-13 13:55:18.879040] 49
[2025-04-13 13:55:18.879040] 16
[2025-04-13 13:55:18.879040] 0
[2025-04-13 13:55:18.879904] 36
[2025-04-13 13:55:18.879904] 100
[2025-04-13 13:55:18.879904] 169
[2025-04-13 13:55:18.887754] 169
[2025-04-13 13:55:18.887754] 81
[2025-04-13 13:55:18.887754] 9
[2025-04-13 13:55:18.887754] 25
[2025-04-13 13:55:18.887754] 121
[2025-04-13 13:55:18.887754] 144
[2025-04-13 13:55:18.887754] 81
[2025-04-13 13:55:18.887754] 49
[2025-04-13 13:55:18.897761] 49
[2025-04-13 13:55:18.897761] 64
[2025-04-13 13:55:18.897761] 81
[2025-04-13 13:55:18.897761] 49
[2025-04-13 13:55:18.897761] 25
[2025-04-13 13:55:18.897761] 0
[2025-04-13 13:55:18.897761] 25
[2025-04-13 13:55:18.897761] 81
[2025-04-13 13:55:18.907186] 121
[2025-04-13 13:55:18.907186] 100
[2025-04-13 13:55:18.907186] 36
[2025-04-13 13:55:18.907186] 1
[2025-04-13 13:55:18.907186] 9
[2025-04-13 13:55:18.907186] 64
[2025-04-13 13:55:18.907186] 64
[2025-04-13 13:55:18.907186] 36
[2025-04-13 13:55:18.915858] 25
[2025-04-13 13:55:18.916808] 64
[2025-04-13 13:55:18.916808] 100
[2025-04-13 13:55:18.916808] 81
[2025-04-13 13:55:18.916808] 49
[2025-04-13 13:55:18.916808] 4
[2025-04-13 13:55:18.916808] 1
[2025-04-13 13:55:18.916808] 25
[2025-04-13 13:55:18.925958] 64
[2025-04-13 13:55:18.925958] 100
[2025-04-13 13:55:18.925958] 100
[2025-04-13 13:55:18.926834] 49
[2025-04-13 13:55:18.926834] 4
[2025-04-13 13:55:18.926834] 9
[2025-04-13 13:55:18.926834] 49
[2025-04-13 13:55:18.926834] 100
[2025-04-13 13:55:18.934187] 100
[2025-04-13 13:55:18.934187] 100
[2025-04-13 13:55:18.934187] 81
[2025-04-13 13:55:18.934187] 64
[2025-04-13 13:55:18.934187] 49
[2025-04-13 13:55:18.934187] 36
[2025-04-13 13:55:18.934187] 16
[2025-04-13 13:55:18.935226] 1
[2025-04-13 13:55:18.944063] 9
[2025-04-13 13:55:18.945090] 49
[2025-04-13 13:55:18.945090] 81
[2025-04-13 13:55:18.945090] 81
[2025-04-13 13:55:18.945090] 49
[2025-04-13 13:55:18.945090] 9
[2025-04-13 13:55:18.945090] 0
[2025-04-13 13:55:18.945090] 9
[2025-04-13 13:55:18.945090] 49
[2025-04-13 13:55:18.954075] 81
[2025-04-13 13:55:18.954075] 121
[2025-04-13 13:55:18.954075] 100
[2025-04-13 13:55:18.954075] 81
[2025-04-13 13:55:18.954075] 49
[2025-04-13 13:55:18.954075] 36
[2025-04-13 13:55:18.954075] 16
[2025-04-13 13:55:18.964430] 0
[2025-04-13 13:55:18.964430] 16
[2025-04-13 13:55:18.964430] 64
[2025-04-13 13:55:18.964430] 81
[2025-04-13 13:55:18.964430] 81
[2025-04-13 13:55:18.964430] 49
[2025-04-13 13:55:18.964430] 4
[2025-04-13 13:55:18.964430] 1
[2025-04-13 13:55:18.964430] 25
[2025-04-13 13:55:18.972504] 64
[2025-04-13 13:55:18.972504] 100
[2025-04-13 13:55:18.972504] 121
[2025-04-13 13:55:18.973361] 121
[2025-04-13 13:55:18.973361] 81
[2025-04-13 13:55:18.973361] 64
[2025-04-13 13:55:18.973361] 36
[2025-04-13 13:55:18.982408] 4
[2025-04-13 13:55:18.982408] 1
[2025-04-13 13:55:18.982408] 25
[2025-04-13 13:55:18.982408] 81
[2025-04-13 13:55:18.982408] 121
[2025-04-13 13:55:18.982408] 100
[2025-04-13 13:55:18.982408] 36
[2025-04-13 13:55:18.982408] 9
[2025-04-13 13:55:18.982408] 0
[2025-04-13 13:55:18.991830] 9
[2025-04-13 13:55:18.991830] 25
[2025-04-13 13:55:18.991830] 64
[2025-04-13 13:55:18.991830] 196
[2025-04-13 13:55:18.991830] 324
[2025-04-13 13:55:18.991830] 256
[2025-04-13 13:55:18.991830] 121
[2025-04-13 13:55:18.999874] 36
[2025-04-13 13:55:18.999874] 4
[2025-04-13 13:55:18.999874] 4
[2025-04-13 13:55:18.999874] 49
[2025-04-13 13:55:18.999874] 121
[2025-04-13 13:55:18.999874] 144
[2025-04-13 13:55:19.000762] 144
[2025-04-13 13:55:19.000762] 81
[2025-04-13 13:55:19.008729] 9
[2025-04-13 13:55:19.009731] 1
[2025-04-13 13:55:19.009731] 25
[2025-04-13 13:55:19.009731] 64
[2025-04-13 13:55:19.009731] 121
[2025-04-13 13:55:19.009731] 169
[2025-04-13 13:55:19.009731] 169
[2025-04-13 13:55:19.018955] 144
[2025-04-13 13:55:19.018955] 81
[2025-04-13 13:55:19.018955] 36
[2025-04-13 13:55:19.018955] 4
[2025-04-13 13:55:19.018955] 4
[2025-04-13 13:55:19.018955] 25
[2025-04-13 13:55:19.018955] 64
[2025-04-13 13:55:19.018955] 81
[2025-04-13 13:55:19.019992] 81
[2025-04-13 13:55:19.028411] 64
[2025-04-13 13:55:19.028411] 25
[2025-04-13 13:55:19.028411] 1
[2025-04-13 13:55:19.028411] 4
[2025-04-13 13:55:19.028411] 36
[2025-04-13 13:55:19.028411] 100
[2025-04-13 13:55:19.028411] 169
[2025-04-13 13:55:19.037283] 196
[2025-04-13 13:55:19.037283] 169
[2025-04-13 13:55:19.037283] 100
[2025-04-13 13:55:19.038291] 64
[2025-04-13 13:55:19.038291] 25
[2025-04-13 13:55:19.038291] 0
[2025-04-13 13:55:19.038291] 16
[2025-04-13 13:55:19.038291] 81
[2025-04-13 13:55:19.045539] 169
[2025-04-13 13:55:19.046495] 169
[2025-04-13 13:55:19.046495] 81
[2025-04-13 13:55:19.046495] 16
[2025-04-13 13:55:19.046495] 1
[2025-04-13 13:55:19.046495] 36
[2025-04-13 13:55:19.046495] 81
[2025-04-13 13:55:19.046495] 144
[2025-04-13 13:55:19.055414] 144
[2025-04-13 13:55:19.055414] 121
[2025-04-13 13:55:19.055414] 100
[2025-04-13 13:55:19.055414] 81
[2025-04-13 13:55:19.055414] 49
[2025-04-13 13:55:19.055414] 9
[2025-04-13 13:55:19.055414] 0
[2025-04-13 13:55:19.064423] 25
[2025-04-13 13:55:19.064423] 100
[2025-04-13 13:55:19.064423] 144
[2025-04-13 13:55:19.064423] 81
[2025-04-13 13:55:19.064423] 25
[2025-04-13 13:55:19.064423] 4
[2025-04-13 13:55:19.064423] 0
[2025-04-13 13:55:19.065413] 4
[2025-04-13 13:55:19.065413] 16
[2025-04-13 13:55:19.072629] 49
[2025-04-13 13:55:19.072629] 100
[2025-04-13 13:55:19.072629] 121
[2025-04-13 13:55:19.072629] 144
[2025-04-13 13:55:19.073686] 100
[2025-04-13 13:55:19.073686] 64
[2025-04-13 13:55:19.073686] 25
[2025-04-13 13:55:19.082918] 0
[2025-04-13 13:55:19.082918] 25
[2025-04-13 13:55:19.082918] 81
[2025-04-13 13:55:19.082918] 169
[2025-04-13 13:55:19.083905] 144
[2025-04-13 13:55:19.083905] 64
[2025-04-13 13:55:19.083905] 4
[2025-04-13 13:55:19.083905] 9
[2025-04-13 13:55:19.091906] 49
[2025-04-13 13:55:19.091906] 81
[2025-04-13 13:55:19.091906] 100
[2025-04-13 13:55:19.091906] 100
[2025-04-13 13:55:19.091906] 121
[2025-04-13 13:55:19.091906] 100
[2025-04-13 13:55:19.091906] 64
[2025-04-13 13:55:19.101945] 25
[2025-04-13 13:55:19.101945] 1
[2025-04-13 13:55:19.101945] 4
[2025-04-13 13:55:19.101945] 9
[2025-04-13 13:55:19.101945] 16
[2025-04-13 13:55:19.101945] 49
[2025-04-13 13:55:19.101945] 49
[2025-04-13 13:55:19.102985] 36
[2025-04-13 13:55:19.102985] 1
[2025-04-13 13:55:19.111019] 1
[2025-04-13 13:55:19.111019] 4
[2025-04-13 13:55:19.111019] 9
[2025-04-13 13:55:19.112071] 25
[2025-04-13 13:55:19.112071] 49
[2025-04-13 13:55:19.112071] 100
[2025-04-13 13:55:19.112071] 100
[2025-04-13 13:55:19.112071] 100
[2025-04-13 13:55:19.120415] 64
[2025-04-13 13:55:19.121273] 16
[2025-04-13 13:55:19.121273] 0
[2025-04-13 13:55:19.121273] 9
[2025-04-13 13:55:19.121273] 49
[2025-04-13 13:55:19.121273] 81
[2025-04-13 13:55:19.121273] 81
[2025-04-13 13:55:19.121273] 36
[2025-04-13 13:55:19.121273] 9
[2025-04-13 13:55:19.130275] 0
[2025-04-13 13:55:19.130275] 16
[2025-04-13 13:55:19.130275] 25
[2025-04-13 13:55:19.130275] 64
[2025-04-13 13:55:19.130275] 100
[2025-04-13 13:55:19.130275] 121
[2025-04-13 13:55:19.130275] 100
[2025-04-13 13:55:19.139587] 81
[2025-04-13 13:55:19.139587] 36
[2025-04-13 13:55:19.139587] 9
[2025-04-13 13:55:19.139587] 0
[2025-04-13 13:55:19.139587] 25
[2025-04-13 13:55:19.139587] 64
[2025-04-13 13:55:19.139587] 81
[2025-04-13 13:55:19.140562] 64
[2025-04-13 13:55:19.140562] 25
[2025-04-13 13:55:19.148677] 1
[2025-04-13 13:55:19.149530] 0
[2025-04-13 13:55:19.149530] 16
[2025-04-13 13:55:19.149530] 36
[2025-04-13 13:55:19.149530] 81
[2025-04-13 13:55:19.149530] 121
[2025-04-13 13:55:19.149530] 121
[2025-04-13 13:55:19.149530] 81
[2025-04-13 13:55:19.158731] 64
[2025-04-13 13:55:19.158731] 49
[2025-04-13 13:55:19.158731] 49
[2025-04-13 13:55:19.158731] 1
[2025-04-13 13:55:19.158731] 16
[2025-04-13 13:55:19.158731] 100
[2025-04-13 13:55:19.158731] 169
[2025-04-13 13:55:19.167971] 144
[2025-04-13 13:55:19.167971] 64
[2025-04-13 13:55:19.167971] 16
[2025-04-13 13:55:19.167971] 0
[2025-04-13 13:55:19.167971] 16
[2025-04-13 13:55:19.167971] 49
[2025-04-13 13:55:19.167971] 100
[2025-04-13 13:55:19.167971] 100
[2025-04-13 13:55:19.176121] 121
[2025-04-13 13:55:19.176121] 121
[2025-04-13 13:55:19.176121] 81
[2025-04-13 13:55:19.176121] 81
[2025-04-13 13:55:19.176121] 64
[2025-04-13 13:55:19.176121] 16
[2025-04-13 13:55:19.176121] 1
[2025-04-13 13:55:19.177011] 64
[2025-04-13 13:55:19.185676] 169
[2025-04-13 13:55:19.185676] 169
[2025-04-13 13:55:19.185676] 121
[2025-04-13 13:55:19.185676] 49
[2025-04-13 13:55:19.185676] 16
[2025-04-13 13:55:19.185676] 1
[2025-04-13 13:55:19.185676] 36
[2025-04-13 13:55:19.193682] 81
[2025-04-13 13:55:19.193682] 169
[2025-04-13 13:55:19.193682] 289
[2025-04-13 13:55:19.193682] 400
[2025-04-13 13:55:19.193682] 289
[2025-04-13 13:55:19.193682] 121
[2025-04-13 13:55:19.193682] 1
[2025-04-13 13:55:19.202552] 36
[2025-04-13 13:55:19.202552] 121
[2025-04-13 13:55:19.202552] 144
[2025-04-13 13:55:19.202552] 169
[2025-04-13 13:55:19.202552] 100
[2025-04-13 13:55:19.202552] 49
[2025-04-13 13:55:19.202552] 4
[2025-04-13 13:55:19.202552] 4
[2025-04-13 13:55:19.210919] 36
[2025-04-13 13:55:19.210919] 81
[2025-04-13 13:55:19.210919] 144
[2025-04-13 13:55:19.210919] 169
[2025-04-13 13:55:19.210919] 169
[2025-04-13 13:55:19.210919] 121
[2025-04-13 13:55:19.210919] 64
[2025-04-13 13:55:19.219772] 25
[2025-04-13 13:55:19.219772] 4
[2025-04-13 13:55:19.219772] 1
[2025-04-13 13:55:19.219772] 25
[2025-04-13 13:55:19.219772] 81
[2025-04-13 13:55:19.220803] 144
[2025-04-13 13:55:19.220803] 169
[2025-04-13 13:55:19.220803] 81
[2025-04-13 13:55:19.229045] 9
[2025-04-13 13:55:19.230063] 1
[2025-04-13 13:55:19.230063] 36
[2025-04-13 13:55:19.230063] 100
[2025-04-13 13:55:19.230063] 144
[2025-04-13 13:55:19.230063] 169
[2025-04-13 13:55:19.230063] 169
[2025-04-13 13:55:19.239049] 100
[2025-04-13 13:55:19.239049] 49
[2025-04-13 13:55:19.239049] 9
[2025-04-13 13:55:19.239049] 4
[2025-04-13 13:55:19.239049] 0
[2025-04-13 13:55:19.239049] 4
[2025-04-13 13:55:19.239049] 49
[2025-04-13 13:55:19.239049] 121
[2025-04-13 13:55:19.248489] 169
[2025-04-13 13:55:19.248489] 81
[2025-04-13 13:55:19.248489] 9
[2025-04-13 13:55:19.248489] 1
[2025-04-13 13:55:19.248489] 16
[2025-04-13 13:55:19.248489] 49
[2025-04-13 13:55:19.248489] 81
[2025-04-13 13:55:19.248489] 144
[2025-04-13 13:55:19.257644] 144
[2025-04-13 13:55:19.257644] 100
[2025-04-13 13:55:19.257644] 64
[2025-04-13 13:55:19.257644] 49
[2025-04-13 13:55:19.257644] 16
[2025-04-13 13:55:19.257644] 1
[2025-04-13 13:55:19.257644] 49
[2025-04-13 13:55:19.257644] 100
[2025-04-13 13:55:19.267176] 144
[2025-04-13 13:55:19.267176] 81
[2025-04-13 13:55:19.267176] 16
[2025-04-13 13:55:19.267499] 1
[2025-04-13 13:55:19.267499] 16
[2025-04-13 13:55:19.267499] 49
[2025-04-13 13:55:19.267499] 49
[2025-04-13 13:55:19.267499] 49
[2025-04-13 13:55:19.276732] 64
[2025-04-13 13:55:19.276732] 81
[2025-04-13 13:55:19.276732] 81
[2025-04-13 13:55:19.276732] 100
[2025-04-13 13:55:19.276732] 64
[2025-04-13 13:55:19.276732] 9
[2025-04-13 13:55:19.276732] 1
[2025-04-13 13:55:19.276732] 36
[2025-04-13 13:55:19.286879] 64
[2025-04-13 13:55:19.286879] 81
[2025-04-13 13:55:19.286879] 64
[2025-04-13 13:55:19.286879] 25
[2025-04-13 13:55:19.286879] 0
[2025-04-13 13:55:19.286879] 1
[2025-04-13 13:55:19.286879] 16
[2025-04-13 13:55:19.286879] 36
[2025-04-13 13:55:19.286879] 64
[2025-04-13 13:55:19.294887] 100
[2025-04-13 13:55:19.294887] 100
[2025-04-13 13:55:19.294887] 121
[2025-04-13 13:55:19.294887] 81
[2025-04-13 13:55:19.294887] 36
[2025-04-13 13:55:19.294887] 4
[2025-04-13 13:55:19.294887] 1
[2025-04-13 13:55:19.295902] 25
[2025-04-13 13:55:19.304957] 64
[2025-04-13 13:55:19.304957] 100
[2025-04-13 13:55:19.305907] 81
[2025-04-13 13:55:19.305907] 49
[2025-04-13 13:55:19.305907] 9
[2025-04-13 13:55:19.305907] 1
[2025-04-13 13:55:19.305907] 16
[2025-04-13 13:55:19.305907] 49
[2025-04-13 13:55:19.314061] 81
[2025-04-13 13:55:19.314061] 144
[2025-04-13 13:55:19.314061] 169
[2025-04-13 13:55:19.314903] 169
[2025-04-13 13:55:19.314903] 100
[2025-04-13 13:55:19.314903] 81
[2025-04-13 13:55:19.314903] 16
[2025-04-13 13:55:19.322047] 1
[2025-04-13 13:55:19.322047] 49
[2025-04-13 13:55:19.322047] 121
[2025-04-13 13:55:19.322937] 169
[2025-04-13 13:55:19.322937] 144
[2025-04-13 13:55:19.322937] 81
[2025-04-13 13:55:19.322937] 25
[2025-04-13 13:55:19.322937] 0
[2025-04-13 13:55:19.330489] 25
[2025-04-13 13:55:19.331350] 144
[2025-04-13 13:55:19.331350] 225
[2025-04-13 13:55:19.331350] 256
[2025-04-13 13:55:19.331350] 144
[2025-04-13 13:55:19.331350] 64
[2025-04-13 13:55:19.331350] 36
[2025-04-13 13:55:19.340398] 16
[2025-04-13 13:55:19.340398] 0
[2025-04-13 13:55:19.340398] 9
[2025-04-13 13:55:19.340398] 49
[2025-04-13 13:55:19.340398] 100
[2025-04-13 13:55:19.340398] 144
[2025-04-13 13:55:19.340398] 121
[2025-04-13 13:55:19.349809] 49
[2025-04-13 13:55:19.349809] 0
[2025-04-13 13:55:19.349809] 9
[2025-04-13 13:55:19.349809] 49
[2025-04-13 13:55:19.349809] 81
[2025-04-13 13:55:19.349809] 100
[2025-04-13 13:55:19.349809] 121
[2025-04-13 13:55:19.349809] 144
[2025-04-13 13:55:19.357863] 196
[2025-04-13 13:55:19.357863] 144
[2025-04-13 13:55:19.357863] 64
[2025-04-13 13:55:19.357863] 1
[2025-04-13 13:55:19.357863] 16
[2025-04-13 13:55:19.357863] 81
[2025-04-13 13:55:19.357863] 144
[2025-04-13 13:55:19.367008] 144
[2025-04-13 13:55:19.367008] 144
[2025-04-13 13:55:19.367008] 49
[2025-04-13 13:55:19.367008] 9
[2025-04-13 13:55:19.367865] 4
[2025-04-13 13:55:19.367865] 49
[2025-04-13 13:55:19.367865] 100
[2025-04-13 13:55:19.367865] 169
[2025-04-13 13:55:19.376944] 196
[2025-04-13 13:55:19.376944] 196
[2025-04-13 13:55:19.377948] 144
[2025-04-13 13:55:19.377948] 121
[2025-04-13 13:55:19.377948] 36
[2025-04-13 13:55:19.377948] 1
[2025-04-13 13:55:19.377948] 64
[2025-04-13 13:55:19.385262] 169
[2025-04-13 13:55:19.385262] 225
[2025-04-13 13:55:19.385262] 169
[2025-04-13 13:55:19.385262] 81
[2025-04-13 13:55:19.385262] 9
[2025-04-13 13:55:19.385262] 0
[2025-04-13 13:55:19.385262] 16
[2025-04-13 13:55:19.385262] 64
[2025-04-13 13:55:19.392140] 100
[2025-04-13 13:55:19.392140] 144
[2025-04-13 13:55:19.393139] 196
[2025-04-13 13:55:19.393139] 196
[2025-04-13 13:55:19.393139] 169
[2025-04-13 13:55:19.393139] 100
[2025-04-13 13:55:19.393139] 36
[2025-04-13 13:55:19.401981] 1
[2025-04-13 13:55:19.401981] 25
[2025-04-13 13:55:19.401981] 100
[2025-04-13 13:55:19.401981] 169
[2025-04-13 13:55:19.401981] 169
[2025-04-13 13:55:19.401981] 100
[2025-04-13 13:55:19.401981] 36
[2025-04-13 13:55:19.409853] 4
[2025-04-13 13:55:19.409853] 16
[2025-04-13 13:55:19.410862] 100
[2025-04-13 13:55:19.410862] 144
[2025-04-13 13:55:19.410862] 169
[2025-04-13 13:55:19.410862] 169
[2025-04-13 13:55:19.410862] 169
[2025-04-13 13:55:19.419061] 121
[2025-04-13 13:55:19.419061] 64
[2025-04-13 13:55:19.419061] 4
[2025-04-13 13:55:19.419061] 9
[2025-04-13 13:55:19.419061] 64
[2025-04-13 13:55:19.419061] 144
[2025-04-13 13:55:19.419061] 121
[2025-04-13 13:55:19.428053] 100
[2025-04-13 13:55:19.428053] 49
[2025-04-13 13:55:19.428053] 4
[2025-04-13 13:55:19.428053] 1
[2025-04-13 13:55:19.428053] 16
[2025-04-13 13:55:19.428053] 64
[2025-04-13 13:55:19.428053] 81
[2025-04-13 13:55:19.429085] 121
[2025-04-13 13:55:19.438208] 121
[2025-04-13 13:55:19.438208] 81
[2025-04-13 13:55:19.438208] 81
[2025-04-13 13:55:19.438208] 36
[2025-04-13 13:55:19.438208] 9
[2025-04-13 13:55:19.438208] 0
[2025-04-13 13:55:19.439288] 25
[2025-04-13 13:55:19.439288] 64
[2025-04-13 13:55:19.439288] 81
[2025-04-13 13:55:19.447200] 81
[2025-04-13 13:55:19.447200] 36
[2025-04-13 13:55:19.447200] 9
[2025-04-13 13:55:19.447200] 1
[2025-04-13 13:55:19.447200] 25
[2025-04-13 13:55:19.447200] 100
[2025-04-13 13:55:19.447200] 121
[2025-04-13 13:55:19.447200] 169
[2025-04-13 13:55:19.457207] 144
[2025-04-13 13:55:19.457207] 81
[2025-04-13 13:55:19.457207] 25
[2025-04-13 13:55:19.457207] 9
[2025-04-13 13:55:19.457207] 0
[2025-04-13 13:55:19.457207] 4
[2025-04-13 13:55:19.457207] 9
[2025-04-13 13:55:19.457207] 25
[2025-04-13 13:55:19.466927] 49
[2025-04-13 13:55:19.466927] 49
[2025-04-13 13:55:19.466927] 36
[2025-04-13 13:55:19.466927] 16
[2025-04-13 13:55:19.466927] 0
[2025-04-13 13:55:19.466927] 16
[2025-04-13 13:55:19.466927] 49
[2025-04-13 13:55:19.466927] 81
[2025-04-13 13:55:19.476075] 100
[2025-04-13 13:55:19.476075] 121
[2025-04-13 13:55:19.476075] 100
[2025-04-13 13:55:19.476075] 64
[2025-04-13 13:55:19.476075] 49
[2025-04-13 13:55:19.476075] 16
[2025-04-13 13:55:19.476075] 0
[2025-04-13 13:55:19.476075] 16
[2025-04-13 13:55:19.485302] 81
[2025-04-13 13:55:19.485302] 169
[2025-04-13 13:55:19.485302] 144
[2025-04-13 13:55:19.485302] 81
[2025-04-13 13:55:19.486300] 16
[2025-04-13 13:55:19.486300] 1
[2025-04-13 13:55:19.486300] 49
[2025-04-13 13:55:19.486300] 81
[2025-04-13 13:55:19.493443] 121
[2025-04-13 13:55:19.493443] 121
[2025-04-13 13:55:19.493443] 169
[2025-04-13 13:55:19.493443] 196
[2025-04-13 13:55:19.493443] 144
[2025-04-13 13:55:19.494332] 49
[2025-04-13 13:55:19.494332] 1
[2025-04-13 13:55:19.503247] 25
[2025-04-13 13:55:19.503247] 64
[2025-04-13 13:55:19.503247] 81
[2025-04-13 13:55:19.503247] 81
[2025-04-13 13:55:19.503247] 64
[2025-04-13 13:55:19.503247] 25
[2025-04-13 13:55:19.504282] 4
[2025-04-13 13:55:19.504282] 1
[2025-04-13 13:55:19.511476] 25
[2025-04-13 13:55:19.511476] 49
[2025-04-13 13:55:19.511476] 81
[2025-04-13 13:55:19.511476] 100
[2025-04-13 13:55:19.512475] 144
[2025-04-13 13:55:19.512475] 121
[2025-04-13 13:55:19.512475] 100
[2025-04-13 13:55:19.520438] 49
[2025-04-13 13:55:19.520438] 9
[2025-04-13 13:55:19.520438] 1
[2025-04-13 13:55:19.520438] 36
[2025-04-13 13:55:19.520438] 81
[2025-04-13 13:55:19.521472] 100
[2025-04-13 13:55:19.521472] 81
[2025-04-13 13:55:19.521472] 36
[2025-04-13 13:55:19.521472] 16
[2025-04-13 13:55:19.530560] 0
[2025-04-13 13:55:19.530560] 9
[2025-04-13 13:55:19.530560] 49
[2025-04-13 13:55:19.530560] 100
[2025-04-13 13:55:19.530560] 144
[2025-04-13 13:55:19.530560] 169
[2025-04-13 13:55:19.530560] 121
[2025-04-13 13:55:19.539931] 64
[2025-04-13 13:55:19.539931] 16
[2025-04-13 13:55:19.539931] 0
[2025-04-13 13:55:19.539931] 9
[2025-04-13 13:55:19.539931] 36
[2025-04-13 13:55:19.539931] 64
[2025-04-13 13:55:19.539931] 81
[2025-04-13 13:55:19.539931] 81
[2025-04-13 13:55:19.539931] 49
[2025-04-13 13:55:19.549275] 9
[2025-04-13 13:55:19.549275] 1
[2025-04-13 13:55:19.549275] 25
[2025-04-13 13:55:19.549275] 64
[2025-04-13 13:55:19.549275] 81
[2025-04-13 13:55:19.549275] 121
[2025-04-13 13:55:19.549275] 169
[2025-04-13 13:55:19.558425] 225
[2025-04-13 13:55:19.558425] 169
[2025-04-13 13:55:19.558425] 81
[2025-04-13 13:55:19.558425] 4
[2025-04-13 13:55:19.558425] 16
[2025-04-13 13:55:19.558425] 64
[2025-04-13 13:55:19.558425] 121
[2025-04-13 13:55:19.558425] 100
[2025-04-13 13:55:19.567911] 81
[2025-04-13 13:55:19.567911] 36
[2025-04-13 13:55:19.567911] 1
[2025-04-13 13:55:19.567911] 16
[2025-04-13 13:55:19.567911] 64
[2025-04-13 13:55:19.567911] 81
[2025-04-13 13:55:19.567911] 81
[2025-04-13 13:55:19.567911] 81
[2025-04-13 13:55:19.577325] 81
[2025-04-13 13:55:19.577325] 64
[2025-04-13 13:55:19.577325] 49
[2025-04-13 13:55:19.577325] 25
[2025-04-13 13:55:19.577325] 4
[2025-04-13 13:55:19.577325] 1
[2025-04-13 13:55:19.577325] 16
[2025-04-13 13:55:19.577325] 64
[2025-04-13 13:55:19.586314] 100
[2025-04-13 13:55:19.586314] 81
[2025-04-13 13:55:19.586314] 49
[2025-04-13 13:55:19.586314] 16
[2025-04-13 13:55:19.587183] 0
[2025-04-13 13:55:19.587183] 16
[2025-04-13 13:55:19.587183] 49
[2025-04-13 13:55:19.587183] 81
[2025-04-13 13:55:19.595483] 144
[2025-04-13 13:55:19.595483] 144
[2025-04-13 13:55:19.596485] 100
[2025-04-13 13:55:19.596485] 49
[2025-04-13 13:55:19.596485] 25
[2025-04-13 13:55:19.596485] 16
[2025-04-13 13:55:19.596485] 9
[2025-04-13 13:55:19.596485] 0
[2025-04-13 13:55:19.605431] 49
[2025-04-13 13:55:19.605431] 144
[2025-04-13 13:55:19.605431] 169
[2025-04-13 13:55:19.605431] 81
[2025-04-13 13:55:19.605971] 16
[2025-04-13 13:55:19.605971] 1
[2025-04-13 13:55:19.605971] 25
[2025-04-13 13:55:19.605971] 81
[2025-04-13 13:55:19.613868] 121
[2025-04-13 13:55:19.613868] 144
[2025-04-13 13:55:19.613868] 144
[2025-04-13 13:55:19.613868] 100
[2025-04-13 13:55:19.613868] 81
[2025-04-13 13:55:19.613868] 36
[2025-04-13 13:55:19.613868] 9
[2025-04-13 13:55:19.613868] 0
[2025-04-13 13:55:19.623016] 25
[2025-04-13 13:55:19.623016] 81
[2025-04-13 13:55:19.623016] 121
[2025-04-13 13:55:19.623918] 100
[2025-04-13 13:55:19.623918] 49
[2025-04-13 13:55:19.623918] 9
[2025-04-13 13:55:19.623918] 0
[2025-04-13 13:55:19.623918] 16
[2025-04-13 13:55:19.632594] 36
[2025-04-13 13:55:19.632594] 64
[2025-04-13 13:55:19.632594] 121
[2025-04-13 13:55:19.632594] 121
[2025-04-13 13:55:19.632594] 121
[2025-04-13 13:55:19.632594] 81
[2025-04-13 13:55:19.632594] 81
[2025-04-13 13:55:19.640745] 25
[2025-04-13 13:55:19.640745] 0
[2025-04-13 13:55:19.640745] 25
[2025-04-13 13:55:19.640745] 81
[2025-04-13 13:55:19.640745] 121
[2025-04-13 13:55:19.640745] 121
[2025-04-13 13:55:19.641633] 81
[2025-04-13 13:55:19.641633] 16
[2025-04-13 13:55:19.650208] 0
[2025-04-13 13:55:19.650208] 16
[2025-04-13 13:55:19.650208] 49
[2025-04-13 13:55:19.650208] 121
[2025-04-13 13:55:19.650208] 169
[2025-04-13 13:55:19.650208] 169
[2025-04-13 13:55:19.650780] 121
[2025-04-13 13:55:19.659769] 81
[2025-04-13 13:55:19.659769] 36
[2025-04-13 13:55:19.659769] 4
[2025-04-13 13:55:19.659769] 9
[2025-04-13 13:55:19.659769] 64
[2025-04-13 13:55:19.659769] 100
[2025-04-13 13:55:19.659769] 81
[2025-04-13 13:55:19.659769] 49
[2025-04-13 13:55:19.668920] 9
[2025-04-13 13:55:19.668920] 0
[2025-04-13 13:55:19.668920] 9
[2025-04-13 13:55:19.668920] 36
[2025-04-13 13:55:19.668920] 64
[2025-04-13 13:55:19.668920] 100
[2025-04-13 13:55:19.669808] 121
[2025-04-13 13:55:19.669808] 100
[2025-04-13 13:55:19.677889] 64
[2025-04-13 13:55:19.677889] 49
[2025-04-13 13:55:19.677889] 36
[2025-04-13 13:55:19.677889] 9
[2025-04-13 13:55:19.677889] 1
[2025-04-13 13:55:19.677889] 49
[2025-04-13 13:55:19.678944] 121
[2025-04-13 13:55:19.678944] 121
[2025-04-13 13:55:19.687952] 49
[2025-04-13 13:55:19.687952] 4
[2025-04-13 13:55:19.687952] 0
[2025-04-13 13:55:19.687952] 1
[2025-04-13 13:55:19.687952] 25
[2025-04-13 13:55:19.687952] 49
[2025-04-13 13:55:19.688981] 100
[2025-04-13 13:55:19.688981] 100
[2025-04-13 13:55:19.697487] 64
[2025-04-13 13:55:19.697487] 36
[2025-04-13 13:55:19.697487] 36
[2025-04-13 13:55:19.697487] 64
[2025-04-13 13:55:19.697487] 49
[2025-04-13 13:55:19.697487] 16
[2025-04-13 13:55:19.697487] 1
[2025-04-13 13:55:19.697487] 64
[2025-04-13 13:55:19.706493] 144
[2025-04-13 13:55:19.706493] 169
[2025-04-13 13:55:19.706493] 100
[2025-04-13 13:55:19.706493] 25
[2025-04-13 13:55:19.706493] 0
[2025-04-13 13:55:19.706493] 16
[2025-04-13 13:55:19.706493] 49
[2025-04-13 13:55:19.706493] 81
[2025-04-13 13:55:19.715183] 121
[2025-04-13 13:55:19.715183] 144
[2025-04-13 13:55:19.715183] 121
[2025-04-13 13:55:19.715183] 100
[2025-04-13 13:55:19.715183] 64
[2025-04-13 13:55:19.715183] 16
[2025-04-13 13:55:19.715183] 1
[2025-04-13 13:55:19.715183] 9
[2025-04-13 13:55:19.724180] 36
[2025-04-13 13:55:19.724180] 81
[2025-04-13 13:55:19.724180] 100
[2025-04-13 13:55:19.724180] 81
[2025-04-13 13:55:19.725073] 25
[2025-04-13 13:55:19.725073] 0
[2025-04-13 13:55:19.725073] 16
[2025-04-13 13:55:19.725073] 49
[2025-04-13 13:55:19.733442] 81
[2025-04-13 13:55:19.733442] 144
[2025-04-13 13:55:19.733442] 196
[2025-04-13 13:55:19.733442] 144
[2025-04-13 13:55:19.734182] 81
[2025-04-13 13:55:19.734182] 36
[2025-04-13 13:55:19.734182] 4
[2025-04-13 13:55:19.743300] 1
[2025-04-13 13:55:19.743300] 25
[2025-04-13 13:55:19.743300] 81
[2025-04-13 13:55:19.743300] 144
[2025-04-13 13:55:19.743300] 100
[2025-04-13 13:55:19.743300] 36
[2025-04-13 13:55:19.743300] 1
[2025-04-13 13:55:19.743300] 9
[2025-04-13 13:55:19.752248] 49
[2025-04-13 13:55:19.752248] 81
[2025-04-13 13:55:19.752248] 121
[2025-04-13 13:55:19.752248] 121
[2025-04-13 13:55:19.752248] 100
[2025-04-13 13:55:19.752248] 64
[2025-04-13 13:55:19.752248] 36
[2025-04-13 13:55:19.752248] 9
[2025-04-13 13:55:19.762248] 0
[2025-04-13 13:55:19.762248] 16
[2025-04-13 13:55:19.763104] 64
[2025-04-13 13:55:19.763104] 64
[2025-04-13 13:55:19.763104] 36
[2025-04-13 13:55:19.763104] 4
[2025-04-13 13:55:19.763104] 1
[2025-04-13 13:55:19.763104] 1
[2025-04-13 13:55:19.763104] 1
[2025-04-13 13:55:19.772383] 4
[2025-04-13 13:55:19.772383] 25
[2025-04-13 13:55:19.772383] 36
[2025-04-13 13:55:19.772383] 81
[2025-04-13 13:55:19.772383] 100
[2025-04-13 13:55:19.772383] 81
[2025-04-13 13:55:19.772383] 64
[2025-04-13 13:55:19.772383] 36
[2025-04-13 13:55:19.781362] 16
[2025-04-13 13:55:19.781362] 0
[2025-04-13 13:55:19.782222] 16
[2025-04-13 13:55:19.782222] 64
[2025-04-13 13:55:19.782222] 100
[2025-04-13 13:55:19.782222] 100
[2025-04-13 13:55:19.782222] 49
[2025-04-13 13:55:19.782222] 4
[2025-04-13 13:55:19.790122] 1
[2025-04-13 13:55:19.790122] 16
[2025-04-13 13:55:19.790122] 49
[2025-04-13 13:55:19.790122] 64
[2025-04-13 13:55:19.790122] 100
[2025-04-13 13:55:19.791100] 100
[2025-04-13 13:55:19.791100] 121
[2025-04-13 13:55:19.791100] 81
[2025-04-13 13:55:19.799243] 49
[2025-04-13 13:55:19.799243] 16
[2025-04-13 13:55:19.799243] 0
[2025-04-13 13:55:19.799243] 16
[2025-04-13 13:55:19.799243] 64
[2025-04-13 13:55:19.799243] 100
[2025-04-13 13:55:19.799243] 100
[2025-04-13 13:55:19.808432] 64
[2025-04-13 13:55:19.808432] 9
[2025-04-13 13:55:19.808432] 1
[2025-04-13 13:55:19.808432] 25
[2025-04-13 13:55:19.808432] 81
[2025-04-13 13:55:19.808432] 121
[2025-04-13 13:55:19.808432] 144
[2025-04-13 13:55:19.808432] 100
[2025-04-13 13:55:19.818247] 64
[2025-04-13 13:55:19.818247] 49
[2025-04-13 13:55:19.818247] 36
[2025-04-13 13:55:19.818247] 16
[2025-04-13 13:55:19.818247] 0
[2025-04-13 13:55:19.818247] 16
[2025-04-13 13:55:19.818247] 49
[2025-04-13 13:55:19.818247] 81
[2025-04-13 13:55:19.828254] 81
[2025-04-13 13:55:19.828254] 49
[2025-04-13 13:55:19.828254] 9
[2025-04-13 13:55:19.828254] 1
[2025-04-13 13:55:19.828254] 16
[2025-04-13 13:55:19.828254] 36
[2025-04-13 13:55:19.828254] 64
[2025-04-13 13:55:19.828254] 64
[2025-04-13 13:55:19.828254] 49
[2025-04-13 13:55:19.837128] 25
[2025-04-13 13:55:19.837128] 16
[2025-04-13 13:55:19.837128] 36
[2025-04-13 13:55:19.837128] 100
[2025-04-13 13:55:19.837128] 49
[2025-04-13 13:55:19.837128] 1
[2025-04-13 13:55:19.837128] 64
[2025-04-13 13:55:19.837128] 225
[2025-04-13 13:55:19.846135] 256
[2025-04-13 13:55:19.846135] 100
[2025-04-13 13:55:19.846135] 1
[2025-04-13 13:55:19.846135] 49
[2025-04-13 13:55:19.846135] 121
[2025-04-13 13:55:19.846135] 121
[2025-04-13 13:55:19.846135] 81
[2025-04-13 13:55:19.855819] 49
[2025-04-13 13:55:19.855819] 49
[2025-04-13 13:55:19.855819] 36
[2025-04-13 13:55:19.855819] 36
[2025-04-13 13:55:19.855819] 36
[2025-04-13 13:55:19.855819] 9
[2025-04-13 13:55:19.855819] 0
[2025-04-13 13:55:19.855819] 16
[2025-04-13 13:55:19.864742] 64
[2025-04-13 13:55:19.864742] 100
[2025-04-13 13:55:19.864742] 121
[2025-04-13 13:55:19.864742] 64
[2025-04-13 13:55:19.865602] 16
[2025-04-13 13:55:19.865602] 1
[2025-04-13 13:55:19.865602] 36
[2025-04-13 13:55:19.865602] 81
[2025-04-13 13:55:19.873649] 121
[2025-04-13 13:55:19.873649] 144
[2025-04-13 13:55:19.873649] 121
[2025-04-13 13:55:19.873649] 64
[2025-04-13 13:55:19.873649] 49
[2025-04-13 13:55:19.873649] 49
[2025-04-13 13:55:19.873649] 25
[2025-04-13 13:55:19.873649] 0
[2025-04-13 13:55:19.883596] 9
[2025-04-13 13:55:19.883596] 49
[2025-04-13 13:55:19.883596] 81
[2025-04-13 13:55:19.883596] 81
[2025-04-13 13:55:19.883596] 49
[2025-04-13 13:55:19.883596] 9
[2025-04-13 13:55:19.883596] 0
[2025-04-13 13:55:19.883596] 9
[2025-04-13 13:55:19.883596] 49
[2025-04-13 13:55:19.893140] 81
[2025-04-13 13:55:19.893140] 121
[2025-04-13 13:55:19.893140] 121
[2025-04-13 13:55:19.893140] 100
[2025-04-13 13:55:19.893140] 81
[2025-04-13 13:55:19.893140] 49
[2025-04-13 13:55:19.894130] 16
[2025-04-13 13:55:19.903137] 0
[2025-04-13 13:55:19.903137] 16
[2025-04-13 13:55:19.903137] 49
[2025-04-13 13:55:19.903137] 81
[2025-04-13 13:55:19.903137] 81
[2025-04-13 13:55:19.903137] 49
[2025-04-13 13:55:19.903137] 9
[2025-04-13 13:55:19.903137] 0
[2025-04-13 13:55:19.904127] 4
[2025-04-13 13:55:19.911929] 25
[2025-04-13 13:55:19.911929] 64
[2025-04-13 13:55:19.911929] 121
[2025-04-13 13:55:19.911929] 144
[2025-04-13 13:55:19.911929] 121
[2025-04-13 13:55:19.911929] 64
[2025-04-13 13:55:19.911929] 49
[2025-04-13 13:55:19.921188] 16
[2025-04-13 13:55:19.921188] 0
[2025-04-13 13:55:19.921188] 9
[2025-04-13 13:55:19.921188] 49
[2025-04-13 13:55:19.921188] 100
[2025-04-13 13:55:19.921188] 100
[2025-04-13 13:55:19.921188] 64
[2025-04-13 13:55:19.921188] 25
[2025-04-13 13:55:19.929193] 1
[2025-04-13 13:55:19.929193] 16
[2025-04-13 13:55:19.929193] 64
[2025-04-13 13:55:19.930186] 121
[2025-04-13 13:55:19.930186] 196
[2025-04-13 13:55:19.930186] 196
[2025-04-13 13:55:19.930186] 169
[2025-04-13 13:55:19.939360] 100
[2025-04-13 13:55:19.939360] 25
[2025-04-13 13:55:19.940370] 0
[2025-04-13 13:55:19.940370] 49
[2025-04-13 13:55:19.940370] 100
[2025-04-13 13:55:19.940370] 100
[2025-04-13 13:55:19.940370] 64
[2025-04-13 13:55:19.940370] 16
[2025-04-13 13:55:19.948205] 1
[2025-04-13 13:55:19.948205] 1
[2025-04-13 13:55:19.948205] 4
[2025-04-13 13:55:19.948205] 16
[2025-04-13 13:55:19.948205] 36
[2025-04-13 13:55:19.949089] 64
[2025-04-13 13:55:19.949089] 100
[2025-04-13 13:55:19.949089] 100
[2025-04-13 13:55:19.958059] 100
[2025-04-13 13:55:19.958059] 36
[2025-04-13 13:55:19.958059] 16
[2025-04-13 13:55:19.958059] 4
[2025-04-13 13:55:19.958059] 1
[2025-04-13 13:55:19.958059] 0
[2025-04-13 13:55:19.958059] 16
[2025-04-13 13:55:19.958059] 100
[2025-04-13 13:55:19.966076] 169
[2025-04-13 13:55:19.966076] 100
[2025-04-13 13:55:19.966076] 36
[2025-04-13 13:55:19.966076] 0
[2025-04-13 13:55:19.966076] 16
[2025-04-13 13:55:19.966076] 64
[2025-04-13 13:55:19.966076] 121
[2025-04-13 13:55:19.966076] 144
[2025-04-13 13:55:19.975082] 144
[2025-04-13 13:55:19.975082] 121
[2025-04-13 13:55:19.975082] 100
[2025-04-13 13:55:19.976086] 49
[2025-04-13 13:55:19.976086] 9
[2025-04-13 13:55:19.976086] 1
[2025-04-13 13:55:19.976086] 25
[2025-04-13 13:55:19.985050] 81
[2025-04-13 13:55:19.985050] 121
[2025-04-13 13:55:19.985050] 81
[2025-04-13 13:55:19.985050] 36
[2025-04-13 13:55:19.985050] 1
[2025-04-13 13:55:19.985050] 9
[2025-04-13 13:55:19.985050] 25
[2025-04-13 13:55:19.985050] 36
[2025-04-13 13:55:19.985050] 64
[2025-04-13 13:55:19.993819] 81
[2025-04-13 13:55:19.993819] 49
[2025-04-13 13:55:19.993819] 49
[2025-04-13 13:55:19.994852] 81
[2025-04-13 13:55:19.994852] 121
[2025-04-13 13:55:19.994852] 100
[2025-04-13 13:55:19.994852] 9
[2025-04-13 13:55:20.002818] 16
[2025-04-13 13:55:20.003820] 121
[2025-04-13 13:55:20.003820] 169
[2025-04-13 13:55:20.003820] 144
[2025-04-13 13:55:20.003820] 81
[2025-04-13 13:55:20.003820] 16
[2025-04-13 13:55:20.003820] 1
[2025-04-13 13:55:20.003820] 36
[2025-04-13 13:55:20.012255] 81
[2025-04-13 13:55:20.012255] 100
[2025-04-13 13:55:20.012255] 100
[2025-04-13 13:55:20.012255] 121
[2025-04-13 13:55:20.012255] 121
[2025-04-13 13:55:20.012255] 81
[2025-04-13 13:55:20.012255] 49
[2025-04-13 13:55:20.021318] 9
[2025-04-13 13:55:20.021318] 0
[2025-04-13 13:55:20.021318] 36
[2025-04-13 13:55:20.021318] 81
[2025-04-13 13:55:20.021318] 121
[2025-04-13 13:55:20.021318] 100
[2025-04-13 13:55:20.021318] 36
[2025-04-13 13:55:20.021318] 4
[2025-04-13 13:55:20.030297] 0
[2025-04-13 13:55:20.030297] 4
[2025-04-13 13:55:20.030297] 36
[2025-04-13 13:55:20.030297] 64
[2025-04-13 13:55:20.030297] 100
[2025-04-13 13:55:20.030297] 144
[2025-04-13 13:55:20.030297] 144
[2025-04-13 13:55:20.030297] 100
[2025-04-13 13:55:20.039539] 64
[2025-04-13 13:55:20.039539] 25
[2025-04-13 13:55:20.039539] 1
[2025-04-13 13:55:20.039539] 9
[2025-04-13 13:55:20.039539] 81
[2025-04-13 13:55:20.039539] 225
[2025-04-13 13:55:20.039539] 225
[2025-04-13 13:55:20.047528] 100
[2025-04-13 13:55:20.047528] 1
[2025-04-13 13:55:20.047528] 25
[2025-04-13 13:55:20.047528] 100
[2025-04-13 13:55:20.047528] 169
[2025-04-13 13:55:20.047528] 169
[2025-04-13 13:55:20.047528] 144
[2025-04-13 13:55:20.047528] 81
[2025-04-13 13:55:20.058171] 49
[2025-04-13 13:55:20.058171] 25
[2025-04-13 13:55:20.058171] 9
[2025-04-13 13:55:20.058171] 0
[2025-04-13 13:55:20.058171] 9
[2025-04-13 13:55:20.058171] 36
[2025-04-13 13:55:20.058171] 64
[2025-04-13 13:55:20.058171] 100
[2025-04-13 13:55:20.066322] 100
[2025-04-13 13:55:20.066322] 64
[2025-04-13 13:55:20.066322] 16
[2025-04-13 13:55:20.067220] 4
[2025-04-13 13:55:20.067220] 81
[2025-04-13 13:55:20.067220] 144
[2025-04-13 13:55:20.067220] 100
[2025-04-13 13:55:20.067220] 81
[2025-04-13 13:55:20.076197] 121
[2025-04-13 13:55:20.076197] 169
[2025-04-13 13:55:20.076197] 144
[2025-04-13 13:55:20.076197] 36
[2025-04-13 13:55:20.076197] 0
[2025-04-13 13:55:20.077205] 36
[2025-04-13 13:55:20.077205] 100
[2025-04-13 13:55:20.085212] 144
[2025-04-13 13:55:20.085212] 100
[2025-04-13 13:55:20.085212] 64
[2025-04-13 13:55:20.085212] 9
[2025-04-13 13:55:20.085212] 0
[2025-04-13 13:55:20.085212] 16
[2025-04-13 13:55:20.085212] 49
[2025-04-13 13:55:20.085212] 81
[2025-04-13 13:55:20.093841] 100
[2025-04-13 13:55:20.093841] 100
[2025-04-13 13:55:20.093841] 100
[2025-04-13 13:55:20.093841] 64
[2025-04-13 13:55:20.093841] 36
[2025-04-13 13:55:20.093841] 16
[2025-04-13 13:55:20.093841] 0
[2025-04-13 13:55:20.093841] 4
[2025-04-13 13:55:20.104119] 36
[2025-04-13 13:55:20.104119] 81
[2025-04-13 13:55:20.104119] 81
[2025-04-13 13:55:20.104119] 64
[2025-04-13 13:55:20.104119] 16
[2025-04-13 13:55:20.104119] 0
[2025-04-13 13:55:20.104119] 16
[2025-04-13 13:55:20.104119] 64
[2025-04-13 13:55:20.112175] 121
[2025-04-13 13:55:20.112175] 144
[2025-04-13 13:55:20.112175] 169
[2025-04-13 13:55:20.112175] 100
[2025-04-13 13:55:20.113067] 49
[2025-04-13 13:55:20.113067] 9
[2025-04-13 13:55:20.113067] 1
[2025-04-13 13:55:20.113067] 0
[2025-04-13 13:55:20.122806] 9
[2025-04-13 13:55:20.122806] 36
[2025-04-13 13:55:20.122806] 64
[2025-04-13 13:55:20.122806] 100
[2025-04-13 13:55:20.122806] 81
[2025-04-13 13:55:20.122806] 36
[2025-04-13 13:55:20.122806] 0
[2025-04-13 13:55:20.122806] 16
[2025-04-13 13:55:20.130960] 64
[2025-04-13 13:55:20.130960] 144
[2025-04-13 13:55:20.130960] 196
[2025-04-13 13:55:20.130960] 196
[2025-04-13 13:55:20.130960] 144
[2025-04-13 13:55:20.130960] 64
[2025-04-13 13:55:20.130960] 25
[2025-04-13 13:55:20.140588] 4
[2025-04-13 13:55:20.140588] 1
[2025-04-13 13:55:20.140588] 16
[2025-04-13 13:55:20.140588] 81
[2025-04-13 13:55:20.140588] 144
[2025-04-13 13:55:20.140588] 144
[2025-04-13 13:55:20.140588] 81
[2025-04-13 13:55:20.140588] 1
[2025-04-13 13:55:20.148657] 25
[2025-04-13 13:55:20.148657] 100
[2025-04-13 13:55:20.148657] 121
[2025-04-13 13:55:20.148657] 100
[2025-04-13 13:55:20.148657] 81
[2025-04-13 13:55:20.148657] 49
[2025-04-13 13:55:20.149543] 49
[2025-04-13 13:55:20.157810] 36
[2025-04-13 13:55:20.157810] 25
[2025-04-13 13:55:20.158819] 16
[2025-04-13 13:55:20.158819] 1
[2025-04-13 13:55:20.158819] 4
[2025-04-13 13:55:20.158819] 36
[2025-04-13 13:55:20.158819] 81
[2025-04-13 13:55:20.158819] 121
[2025-04-13 13:55:20.166939] 100
[2025-04-13 13:55:20.167945] 36
[2025-04-13 13:55:20.167945] 1
[2025-04-13 13:55:20.167945] 9
[2025-04-13 13:55:20.167945] 36
[2025-04-13 13:55:20.167945] 81
[2025-04-13 13:55:20.167945] 121
[2025-04-13 13:55:20.168962] 144
[2025-04-13 13:55:20.176979] 121
[2025-04-13 13:55:20.176979] 81
[2025-04-13 13:55:20.176979] 64
[2025-04-13 13:55:20.176979] 36
[2025-04-13 13:55:20.176979] 4
[2025-04-13 13:55:20.176979] 1
[2025-04-13 13:55:20.176979] 36
[2025-04-13 13:55:20.176979] 64
[2025-04-13 13:55:20.177931] 81
[2025-04-13 13:55:20.186679] 64
[2025-04-13 13:55:20.186679] 25
[2025-04-13 13:55:20.186679] 4
[2025-04-13 13:55:20.186679] 1
[2025-04-13 13:55:20.186679] 16
[2025-04-13 13:55:20.186679] 49
[2025-04-13 13:55:20.186679] 100
[2025-04-13 13:55:20.186679] 121
[2025-04-13 13:55:20.195605] 144
[2025-04-13 13:55:20.195605] 81
[2025-04-13 13:55:20.195605] 64
[2025-04-13 13:55:20.195605] 81
[2025-04-13 13:55:20.195605] 16
[2025-04-13 13:55:20.195605] 1
[2025-04-13 13:55:20.196598] 49
[2025-04-13 13:55:20.205260] 100
[2025-04-13 13:55:20.205260] 81
[2025-04-13 13:55:20.205260] 49
[2025-04-13 13:55:20.205260] 25
[2025-04-13 13:55:20.205260] 9
[2025-04-13 13:55:20.205260] 0
[2025-04-13 13:55:20.205260] 16
[2025-04-13 13:55:20.205260] 64
[2025-04-13 13:55:20.205260] 121
[2025-04-13 13:55:20.214075] 144
[2025-04-13 13:55:20.214075] 121
[2025-04-13 13:55:20.214968] 100
[2025-04-13 13:55:20.214968] 64
[2025-04-13 13:55:20.214968] 25
[2025-04-13 13:55:20.214968] 1
[2025-04-13 13:55:20.214968] 4
[2025-04-13 13:55:20.223077] 25
[2025-04-13 13:55:20.223936] 64
[2025-04-13 13:55:20.223936] 100
[2025-04-13 13:55:20.223936] 100
[2025-04-13 13:55:20.223936] 81
[2025-04-13 13:55:20.223936] 25
[2025-04-13 13:55:20.223936] 0
[2025-04-13 13:55:20.223936] 16
[2025-04-13 13:55:20.232342] 64
[2025-04-13 13:55:20.232342] 121
[2025-04-13 13:55:20.232342] 196
[2025-04-13 13:55:20.232342] 196
[2025-04-13 13:55:20.232342] 196
[2025-04-13 13:55:20.232342] 121
[2025-04-13 13:55:20.232342] 49
[2025-04-13 13:55:20.241494] 4
[2025-04-13 13:55:20.241494] 4
[2025-04-13 13:55:20.241494] 36
[2025-04-13 13:55:20.241494] 100
[2025-04-13 13:55:20.241494] 144
[2025-04-13 13:55:20.241494] 121
[2025-04-13 13:55:20.241494] 81
[2025-04-13 13:55:20.241494] 4
[2025-04-13 13:55:20.250350] 16
